0.2711;-53
0.723;56
1.0393;218
1.1071;218
1.1975;272
1.2653;219
1.2878;273
1.3104;273
1.4912;273
1.5138;273
1.6493;219
1.6945;435
1.8301;220
1.9205;382
2.0108;274
2.0786;382
2.1012;328
2.1916;490
2.2368;329
2.3272;275
2.3723;275
2.4401;437
2.4627;383
2.4853;383
2.5983;329
2.6209;329
2.7564;438
2.8694;384
2.892;330
2.9146;492
2.9372;384
3.005;384
3.0276;384
3.0953;492
3.1631;385
3.2083;439
3.2761;601
3.4117;385
3.4794;385
3.5246;385
3.6828;332
3.7054;548
3.9087;386
4.0217;386
4.0443;332
4.1347;441
4.2024;495
4.2702;387
4.5188;333
4.6317;442
4.7447;388
4.7899;334
4.8577;496
4.9706;334
4.9932;335
5.0384;443
5.1288;389
5.174;335
5.2869;389
5.3547;335
5.3773;389
5.3999;443
5.4903;336
5.5355;336
5.6484;336
5.6936;282
5.7162;336
5.784;282
5.8066;228
5.8518;336
5.9196;283
5.9422;229
6.0551;229
6.1229;229
6.1907;337
6.2359;283
6.3714;337
6.4618;230
6.4844;230
6.5748;338
6.6426;284
6.7103;338
6.8459;285
6.8911;231
6.9363;339
7.1396;231
7.2752;232
7.3656;232
7.4559;232
7.6141;178
7.6593;232
7.8626;179
7.9304;179
7.9982;179
8.066;287
8.1338;287
8.1789;233
8.2693;288
8.3371;234
8.4727;234
8.6308;180
8.6986;127
8.8568;235
8.9471;181
9.0827;128
9.2183;128
9.3764;74
9.4442;74
9.4894;236
9.512;290
9.5572;182
9.6475;291
9.6927;183
9.7153;129
9.8509;183
9.9187;129
10.0768;130
10.1446;76
10.3028;130
10.4157;76
10.5287;185
10.5965;131
10.732;131
10.845;131
10.8902;131
10.958;132
11.0935;186
11.2291;132
11.2969;186
11.3873;186
11.5454;133
11.6358;133
11.7262;133
11.9069;134
12.0199;242
12.178;188
12.2458;188
12.3814;135
12.4492;189
12.4718;189
12.6525;135
12.9236;136
13.0366;244
13.0818;190
13.127;136
13.3529;83
13.4885;191
13.6466;191
13.6918;191
13.737;138
13.7596;138
13.9178;138
13.9629;246
14.0533;192
14.1211;138
14.3244;139
14.4374;193
14.5278;193
14.5504;193
14.573;193
14.6859;140
14.7763;248
14.8667;140
14.8893;194
14.9119;248
15.0249;140
15.1378;141
15.2508;141
15.3412;141
15.3638;141
15.5445;195
15.6575;196
15.7253;250
15.793;196
15.9286;196
15.9964;196
16.1319;197
16.1997;197
16.3353;143
16.3579;251
16.4709;197
16.629;198
16.6968;198
16.7872;198
16.9001;144
16.9679;145
17.0583;145
17.1261;145
17.1939;145
17.3972;199
17.4198;146
17.5102;146
17.5779;146
17.7135;146
17.7587;146
18.0072;201
18.075;147
18.1428;93
18.2106;93
18.3009;201
18.4365;202
18.5043;202
18.5269;148
18.6624;148
18.7754;41
18.9788;41
19.0917;203
19.1369;149
19.2499;149
19.2951;150
19.5436;150
19.6114;150
19.7695;151
19.8147;151
19.8599;151
19.9503;259
19.9955;151
20.0181;151
20.0633;151
20.1536;205
20.1988;205
20.3344;98
20.357;152
20.4022;152
20.47;206
20.6055;152
20.6959;153
20.7411;315
20.8992;261
20.967;261
21.0574;261
21.2607;262
21.4189;262
21.4641;208
21.5319;208
21.6448;209
21.69;209
21.8256;209
21.916;209
22.0515;263
22.2323;210
22.3678;210
22.3904;156
22.4808;264
22.5486;157
22.6615;157
22.7745;157
23.023;212
23.0682;158
23.1586;158
23.362;212
23.4749;213
23.5427;213
23.5879;213
23.7235;213
23.859;159
23.9042;160
23.9268;160
23.9494;160
23.972;214
24.085;160
24.1753;160
24.2431;160
24.3561;160
24.4465;161
24.6498;161
24.695;269
24.7628;215
24.8757;162
24.8983;324
24.9661;270
25.0113;270
25.192;324
25.2824;270
25.3954;217
25.4632;217
25.5535;217
25.6665;217
25.7343;217
25.8473;218
25.9602;272
26.0958;218
26.1184;164
26.141;164
26.2991;273
26.4347;219
26.5477;219
26.638;273
26.751;220
26.8414;166
26.9544;166
27.0899;220
27.2481;275
27.3836;275
27.5192;221
27.7;276
27.8355;276
27.9485;222
28.1292;277
28.1744;115
28.3326;385
28.4681;385
28.5359;170
28.7167;278
28.9652;278
29.0556;225
29.146;225
29.2137;225
29.3267;225
29.4171;117
29.53;226
29.5526;657
29.5978;1629
29.6204;1143
29.643;550
29.6656;388
29.7108;388
29.8012;280
29.9593;280
30.0271;281
30.0949;173
30.2982;227
30.366;173
30.5468;282
30.6823;228
30.7953;174
30.9986;175
31.2698;14
31.4053;176
31.4957;68
31.6313;284
31.6991;122
31.7668;123
31.9928;123
32.1057;123
32.2639;178
32.3317;178
32.4221;232
32.4672;70
32.648;232
32.7836;179
32.8287;233
33.0095;125
33.1451;233
33.258;342
33.3936;288
33.5066;180
33.5969;180
33.6421;234
33.8003;181
33.8229;181
34.094;181
34.2973;182
34.4103;182
34.4781;182
34.6814;237
34.7492;345
34.817;237
34.9074;237
35.0655;238
35.2237;238
35.2463;238
35.3818;184
35.5174;131
35.5852;77
35.7433;131
35.8337;131
35.9015;185
35.9241;239
35.9693;240
36.0822;132
36.1274;240
36.1952;240
36.2856;186
36.3534;186
36.4211;240
36.4889;187
36.5793;187
36.6923;187
36.8278;79
36.8504;187
37.0312;188
37.0538;188
37.1893;134
37.2571;188
37.3249;296
37.4153;243
37.4831;243
37.5734;243
37.6638;189
37.7542;189
37.9801;190
38.0253;190
38.1835;190
38.2512;190
38.2964;137
38.3642;137
38.4094;245
38.6579;191
38.6805;191
38.7257;138
38.7709;84
38.8839;354
38.9065;354
39.1324;192
39.2454;139
39.3131;139
39.4035;247
39.4713;193
39.5843;139
39.6746;140
39.7424;140
39.878;194
40.0362;140
40.0587;140
40.1717;195
40.2395;195
40.3525;141
40.3751;195
40.4428;357
40.5106;249
40.5558;249
40.6462;250
40.8043;196
41.0077;196
41.0755;197
41.2788;197
41.324;143
41.4822;90
41.5951;90
41.7081;198
41.7985;144
41.8437;90
41.934;198
42.0244;199
42.1374;199
42.2277;145
42.2729;145
42.2955;253
42.4085;199
42.5892;200
42.657;200
42.7022;200
42.7248;362
42.883;308
42.9282;255
42.9733;255
43.0863;255
43.1541;255
43.1993;201
43.3348;255
43.4252;256
43.4478;256
43.5834;148
43.6512;94
43.7189;94
44.0127;203
44.1482;203
44.216;203
44.3516;204
44.4645;258
44.5549;258
44.6905;204
44.8486;205
44.9842;259
45.0746;259
45.1875;313
45.3231;260
45.4361;206
45.4587;206
45.5038;260
45.5264;260
45.662;260
45.7072;261
45.8653;315
46.0461;261
46.2494;262
46.385;262
46.5432;262
46.7013;209
46.7239;209
46.7917;209
46.9724;209
47.108;210
47.2436;210
47.4921;264
47.6277;265
47.8084;427
47.8536;373
47.9666;427
48.0343;373
48.1925;428
48.3732;374
48.4636;374
48.5992;429
48.7799;321
48.8251;321
48.9155;321
49.0059;322
49.164;592
49.2996;538
49.39;538
49.5029;700
49.5481;916
49.6159;1510
49.6385;2104
49.6837;33345
49.7289;13489
49.7515;30593
49.7741;1402
49.8644;755
49.9322;647
50.0678;486
50.1582;270
50.2711;432
50.6326;325
50.8134;272
50.9941;272
51.0619;380
51.1749;218
51.3782;327
51.4234;273
51.4912;381
51.6268;273
51.6945;381
51.8301;490
51.8753;382
51.9657;274
52.1238;274
52.2142;167
52.282;167
52.3949;167
52.5983;114
52.779;114
52.9146;222
53.005;168
53.0728;115
53.2083;223
53.3213;169
53.3891;169
53.5246;277
53.6602;224
53.7732;224
53.8183;224
53.9539;224
54.0443;279
54.2476;279
54.4284;333
54.451;225
54.4736;225
54.5865;388
54.6769;226
54.7447;226
54.948;388
55.061;335
55.1288;335
55.3321;389
55.3999;335
55.5355;336
55.7162;282
55.8292;282
55.9196;229
56.0325;283
56.1003;337
56.2359;229
56.3037;229
56.4618;284
56.5522;230
56.5748;230
56.6426;284
56.7103;338
56.7329;284
56.8007;284
56.9589;339
57.0041;285
57.117;177
57.1622;177
57.2752;232
57.4108;232
57.5011;232
57.5915;232
57.6367;286
57.7497;233
57.7948;233
57.8852;233
57.9756;233
58.1338;233
58.2919;288
58.3371;342
58.5404;396
58.676;342
58.8342;343
58.9245;343
58.9923;235
59.1053;343
59.1957;344
59.2634;290
59.286;344
59.4668;290
59.5346;398
59.6023;291
59.7153;237
59.8509;237
59.9638;237
60.0041;-0.052
60.0087;-0.02
60.0133;0.238
60.0179;-0.012
60.0224;0.015
60.027;0.274
60.0316;0.149
60.0362;0.189
60.0408;0.039
60.0453;0.214
60.0499;0.422
60.0545;0.209
60.0591;0.203
60.0637;0.08
60.0683;0.161
60.0728;0.173
60.0774;0.043
60.082;0.031
60.0866;0.286
60.0912;0.142
60.0957;0.241
60.1003;0.28
60.1049;-0.126
60.1095;0.097
60.1141;0.064
60.1186;0.093
60.1232;0.012
60.1278;0.187
60.1324;0.184
60.137;0.298
60.1416;0.126
60.1461;0.218
60.1507;0.257
60.1553;0.312
60.1599;0.147
60.1645;0.098
60.169;-0.003
60.1736;0.297
60.1782;0.02
60.1828;0.333
60.1874;0.075
60.1919;0.272
60.1965;0.002
60.2011;0.122
60.2057;0.068
60.2103;-0.142
60.2149;0.128
60.2194;0.471
60.224;0.154
60.2286;-0.024
60.2332;0.148
60.2378;0.296
60.2423;0.222
60.2469;0.016
60.2515;-0.105
60.2561;-0.013
60.2607;0.251
60.2652;0.14
60.2698;0.368
60.2744;0.025
60.279;0.24
60.2836;0.302
60.2882;0.118
60.2927;0.114
60.2973;0.176
60.3019;0.148
60.3065;0.01
60.3111;0.085
60.3156;-0.063
60.3202;0.253
60.3248;0.026
60.3294;0.27
60.334;0.054
60.3385;0.181
60.3431;0.209
60.3477;0.163
60.3523;0.028
60.3569;0.262
60.3615;0.175
60.366;-0.004
60.3706;0.296
60.3752;0.116
60.3798;0.086
60.3844;-0.167
60.3889;0.28
60.3935;0.032
60.3981;0.17
60.4027;0.127
60.4073;0.131
60.4118;0.157
60.4164;0.165
60.421;0.185
60.4256;0.091
60.4302;0.22
60.4348;-0.06
60.4393;0.08
60.4439;0.044
60.4485;0.306
60.4531;0.271
60.4577;0.242
60.4622;0.049
60.4668;0.066
60.4714;0.088
60.476;0.075
60.4806;0.202
60.4851;0.179
60.4897;0.342
60.4943;-0.045
60.4989;0.055
60.5035;0.2
60.5081;0.085
60.5126;0.108
60.5172;0.382
60.5218;0.125
60.5264;0.202
60.531;0.404
60.5355;0.256
60.5401;0.292
60.5447;0.314
60.5493;0.406
60.5539;0.352
60.5584;0.135
60.563;0.24
60.5676;0.218
60.5722;0.446
60.5768;0.197
60.5814;0.118
60.5859;0.017
60.5905;0.18
60.5951;0.21
60.5997;0.331
60.6043;-0.016
60.6088;0.205
60.6134;0.219
60.618;0.295
60.6226;0.16
60.6272;0.316
60.6317;0.341
60.6363;0.336
60.6409;0.221
60.6455;0.152
60.6501;0.209
60.6547;0.178
60.6592;0.345
60.6638;0.452
60.6684;0.301
60.673;0.153
60.6776;0.457
60.6821;0.455
60.6867;0.457
60.6913;0.499
60.6959;0.644
60.7005;0.788
60.705;0.731
60.7096;1.027
60.7142;0.835
60.7188;1.15
60.7234;1.568
60.728;1.44
60.7325;1.569
60.7371;1.746
60.7417;1.75
60.7463;2.022
60.7509;2.132
60.7554;1.746
60.76;1.971
60.7646;1.55
60.7692;2.043
60.7738;1.452
60.7783;1.34
60.7829;1.113
60.7875;1.149
60.7921;1.097
60.7967;0.683
60.8013;0.888
60.8058;0.97
60.8104;1.008
60.815;0.644
60.8196;0.826
60.8242;0.464
60.8287;0.211
60.8333;0.452
60.8379;0.447
60.8425;0.37
60.8471;0.211
60.8516;0.322
60.8562;0.418
60.8608;0.188
60.8654;0.34
60.87;0.104
60.8746;0.219
60.8791;0.259
60.8837;0.197
60.8883;0.035
60.8929;0.417
60.8975;0.464
60.902;0.076
60.9066;0.162
60.9112;0.234
60.9158;-0.142
60.9204;0.319
60.9249;0.288
60.9295;0.129
60.9341;-0.019
60.9387;0.111
60.9433;0.389
60.9479;0.039
60.9524;0.28
60.957;-0.169
60.9616;0.232
60.9662;-0.028
60.9708;0.065
60.9753;0.125
60.9799;-0.154
60.9845;0.061
60.9891;0.102
60.9937;0.516
60.9982;0.068
61.0028;0.388
61.0074;0.132
61.012;0.266
61.0166;-0.179
61.0212;-0.081
61.0257;0.244
61.0303;0.079
61.0349;0.263
61.0395;0.239
61.0441;0.277
61.0486;0.097
61.0532;0.173
61.0578;0.092
61.0624;-0.174
61.067;0.129
61.0715;0.136
61.0761;0.214
61.0807;0.319
61.0853;0.328
61.0899;0.009
61.0945;0.225
61.099;0.188
61.1036;0.347
61.1082;0.225
61.1128;0.037
61.1174;-0.13
61.1219;0.283
61.1265;0.112
61.1311;0.203
61.1357;0.215
61.1403;0.181
61.1448;0.249
61.1494;0.405
61.154;0.251
61.1586;0.092
61.1632;0.166
61.1678;0.386
61.1723;0.334
61.1769;0.488
61.1815;0.584
61.1861;0.545
61.1907;0.616
61.1952;0.565
61.1998;0.596
61.2044;0.699
61.209;1.15
61.2136;1.148
61.2181;1.527
61.2227;1.049
61.2273;1.179
61.2319;1.257
61.2365;1.083
61.241;1.305
61.2456;1.059
61.2502;0.953
61.2548;1.163
61.2594;1.302
61.264;0.722
61.2685;0.9
61.2731;0.832
61.2777;0.962
61.2823;1.023
61.2869;0.823
61.2914;0.634
61.296;0.768
61.3006;0.748
61.3052;0.252
61.3098;0.358
61.3143;0.577
61.3189;0.579
61.3235;0.623
61.3281;0.51
61.3327;0.462
61.3373;0.397
61.3418;0.339
61.3464;0.362
61.351;0.325
61.3556;0.411
61.3602;0.304
61.3647;0.09
61.3693;0.23
61.3739;0.227
61.3785;0.265
61.3831;0.271
61.3876;0.089
61.3922;0.394
61.3968;0.439
61.4014;0.308
61.406;0.357
61.4106;0.343
61.4151;0.556
61.4197;0.246
61.4243;0.269
61.4289;0.41
61.4335;0.445
61.438;0.311
61.4426;-0.009
61.4472;0.143
61.4518;0.26
61.4564;0.232
61.4609;0.177
61.4655;0.159
61.4701;0.327
61.4747;0.407
61.4793;0.403
61.4839;0.358
61.4884;-0.028
61.493;0.222
61.4976;0.116
61.5022;0.192
61.5068;0.098
61.5113;0.215
61.5159;0.089
61.5205;0.031
61.5251;0.307
61.5297;0.192
61.5342;0.138
61.5388;0.408
61.5434;0.198
61.548;0.074
61.5526;0.132
61.5572;0.212
61.5617;-0.041
61.5663;0.041
61.5709;0.274
61.5755;0.156
61.5801;0.234
61.5846;0.143
61.5892;0.132
61.5938;0.225
61.5984;0.07
61.603;0.226
61.6075;0.225
61.6121;0.149
61.6167;0.133
61.6213;0.104
61.6259;0.068
61.6305;-0.015
61.635;0.423
61.6396;0.069
61.6442;0.27
61.6488;-0.026
61.6534;0.089
61.6579;0.087
61.6625;0.207
61.6671;0.295
61.6717;0.199
61.6763;0.151
61.6808;-0.065
61.6854;-0.018
61.69;-0.001
61.6946;0.096
61.6992;0.014
61.7038;-0.015
61.7083;-0.209
61.7129;0.019
61.7175;0.167
61.7221;0.062
61.7267;0.082
61.7312;0.157
61.7358;0.179
61.7404;0.042
61.745;-0.124
61.7496;0.278
61.7541;-0.15
61.7587;0.09
61.7633;0.203
61.7679;-0.008
61.7725;0.015
61.7771;-0.076
61.7816;0.139
61.7862;0.154
61.7908;0.462
61.7954;0.134
61.8;0.108
61.8045;-0.061
61.8091;0.299
61.8137;0.266
61.8183;0.234
61.8229;0.094
61.8274;-0.119
61.832;0.102
61.8366;0.155
61.8412;0.176
61.8458;0.018
61.8504;0.146
61.8549;0.196
61.8595;0.045
61.8641;0.268
61.8687;0.079
61.8733;0.38
61.8778;0.124
61.8824;0.05
61.887;0.219
61.8916;0.043
61.8962;0.106
61.9007;0.07
61.9053;0.274
61.9099;0.462
61.9145;0.227
61.9191;0.193
61.9237;0.029
61.9282;0.042
61.9328;0.188
61.9374;0.062
61.942;-0.013
61.9466;0.235
61.9511;0.012
61.9557;0.11
61.9603;-0.246
61.9649;-0.097
61.9695;0.182
61.974;0.192
61.9786;-0.203
61.9832;0.267
61.9878;0.019
61.9924;0.095
61.997;0.349
62.0015;0.207
62.0061;0.132
62.0107;0.185
62.0153;0.087
62.0199;-0.023
62.0244;-0.062
62.029;0.002
62.0336;-0.108
62.0382;0.168
62.0428;-0.16
62.0473;0.214
62.0519;0.416
62.0565;0.193
62.0611;0.06
62.0657;0.111
62.0703;0.09
62.0748;0.05
62.0794;-0.239
62.084;-0.016
62.0886;0.14
62.0932;0.316
62.0977;0.168
62.1023;0.091
62.1069;0.067
62.1115;0.307
62.1161;0.028
62.1206;0.214
62.1252;0.279
62.1298;0.37
62.1344;0.251
62.139;0.1
62.1436;-0.192
62.1481;0.327
62.1527;0.201
62.1573;-0.087
62.1619;0.336
62.1665;-0.029
62.171;0.024
62.1756;0.123
62.1802;0.304
62.1848;0.095
62.1894;0.086
62.1939;-0.083
62.1985;0.145
62.2031;0.131
62.2077;0.186
62.2123;0.362
62.2169;-0.087
62.2214;0.056
62.226;0.339
62.2306;-0.01
62.2352;0.042
62.2398;0.237
62.2443;0.154
62.2489;0.405
62.2535;0.226
62.2581;0.35
62.2627;0.001
62.2672;-0.046
62.2718;0.112
62.2764;0.156
62.281;0.09
62.2856;0.319
62.2902;0.007
62.2947;-0.115
62.2993;-0.004
62.3039;0.107
62.3085;0.267
62.3131;0.191
62.3176;0.109
62.3222;0.295
62.3268;0.004
62.3314;-0.027
62.336;0.138
62.3405;0.165
62.3451;0.304
62.3497;0.111
62.3543;0.183
62.3589;0.398
62.3635;0.473
62.368;-0.097
62.3726;0.191
62.3772;0.306
62.3818;-0.01
62.3864;0.315
62.3909;0.361
62.3955;0.171
62.4001;0.038
62.4047;0.393
62.4093;0.014
62.4138;0.175
62.4184;0.014
62.423;0.209
62.4276;0.075
62.4322;0.116
62.4368;0.111
62.4413;0.297
62.4459;0.235
62.4505;-0.049
62.4551;0.306
62.4597;0.274
62.4642;0.359
62.4688;0.306
62.4734;0.238
62.478;0.055
62.4826;0.331
62.4871;0.306
62.4917;0.381
62.4963;0.425
62.5009;0.345
62.5055;0.065
62.5101;0.299
62.5146;0.062
62.5192;0.178
62.5238;0.127
62.5284;0.055
62.533;0.151
62.5375;0.348
62.5421;0.354
62.5467;0.154
62.5513;0.37
62.5559;0.212
62.5604;0.169
62.565;0.36
62.5696;0.12
62.5742;-0.014
62.5788;0.311
62.5833;0.262
62.5879;0.394
62.5925;0.121
62.5971;0.29
62.6017;0.231
62.6063;0.209
62.6108;0.043
62.6154;0.113
62.62;0.197
62.6246;-0.037
62.6292;-0.001
62.6337;0.014
62.6383;0.41
62.6429;0.007
62.6475;0.113
62.6521;0.101
62.6566;0.135
62.6612;0.15
62.6658;0.286
62.6704;-0.027
62.675;0.275
62.6796;0.087
62.6841;0.262
62.6887;0.226
62.6933;0.203
62.6979;0.205
62.7025;0.069
62.707;0.037
62.7116;0.239
62.7162;0.269
62.7208;0.092
62.7254;0.037
62.7299;0.314
62.7345;0.115
62.7391;0.217
62.7437;0.228
62.7483;0.268
62.7529;0.112
62.7574;-0.058
62.762;-0.124
62.7666;0.27
62.7712;0.031
62.7758;0.097
62.7803;0.451
62.7849;0.085
62.7895;0.287
62.7941;0.221
62.7987;0.273
62.8032;0.183
62.8078;-0.001
62.8124;0.139
62.817;0.234
62.8216;-0.046
62.8262;0.267
62.8307;0.105
62.8353;-0.077
62.8399;0.231
62.8445;0.022
62.8491;0.153
62.8536;0.271
62.8582;-0.009
62.8628;-0.097
62.8674;0.007
62.872;0.07
62.8765;0.147
62.8811;0.118
62.8857;0.149
62.8903;0.055
62.8949;0.23
62.8995;0.096
62.904;0.131
62.9086;0.094
62.9132;0.271
62.9178;0.078
62.9224;0.422
62.9269;0.347
62.9315;0.162
62.9361;0.2
62.9407;0.079
62.9453;0.402
62.9498;0.293
62.9544;0.058
62.959;0.139
62.9636;0.113
62.9682;0.202
62.9728;0.12
62.9773;0.171
62.9819;0.144
62.9865;0.157
62.9911;0.268
62.9957;0.296
63.0002;0.485
63.0048;0.367
63.0094;0.266
63.014;0.472
63.0186;0.493
63.0231;0.736
63.0277;0.663
63.0323;0.891
63.0369;0.976
63.0415;1.069
63.0461;1.255
63.0506;1.145
63.0552;1.463
63.0598;1.504
63.0644;1.934
63.069;1.542
63.0735;1.907
63.0781;2.285
63.0827;2.021
63.0873;1.771
63.0919;2.053
63.0964;1.64
63.101;1.669
63.1056;1.729
63.1102;1.705
63.1148;1.389
63.1194;1.381
63.1239;1.114
63.1285;1.261
63.1331;1.253
63.1377;0.844
63.1423;0.876
63.1468;0.927
63.1514;0.667
63.156;0.662
63.1606;0.473
63.1652;0.399
63.1697;0.393
63.1743;0.198
63.1789;0.371
63.1835;0.238
63.1881;0.314
63.1927;0.335
63.1972;0.09
63.2018;0.334
63.2064;0.199
63.211;0.074
63.2156;0.184
63.2201;0.334
63.2247;0.308
63.2293;0.272
63.2339;0.151
63.2385;0.167
63.243;0.459
63.2476;-0.061
63.2522;0.203
63.2568;0.26
63.2614;0.273
63.266;0.01
63.2705;0.3
63.2751;0.209
63.2797;0.222
63.2843;0.02
63.2889;0.403
63.2934;0.331
63.298;-0.086
63.3026;0.156
63.3072;-0.098
63.3118;0.042
63.3163;0.106
63.3209;-0.01
63.3255;-0.121
63.3301;0.202
63.3347;0.262
63.3393;0
63.3438;0.047
63.3484;0.075
63.353;0.118
63.3576;0.196
63.3622;0.028
63.3667;-0.039
63.3713;-0.017
63.3759;-0.098
63.3805;0.185
63.3851;0.121
63.3896;0.159
63.3942;0.21
63.3988;0.345
63.4034;0.195
63.408;0.045
63.4126;0.059
63.4171;-0.096
63.4217;0.252
63.4263;0.121
63.4309;0.177
63.4355;0.147
63.44;0.037
63.4446;0.217
63.4492;0.112
63.4538;0.333
63.4584;0.152
63.4629;0.147
63.4675;0.197
63.4721;0.323
63.4767;0.499
63.4813;0.44
63.4859;0.355
63.4904;0.288
63.495;0.695
63.4996;0.433
63.5042;0.504
63.5088;0.406
63.5133;0.619
63.5179;0.669
63.5225;0.725
63.5271;0.578
63.5317;0.515
63.5362;0.603
63.5408;0.481
63.5454;0.457
63.55;0.342
63.5546;0.354
63.5592;0.345
63.5637;0.069
63.5683;0.431
63.5729;0.253
63.5775;0.312
63.5821;0.137
63.5866;0.422
63.5912;0.458
63.5958;0.185
63.6004;0.259
63.605;0.166
63.6095;0.322
63.6141;0.039
63.6187;0.129
63.6233;0.265
63.6279;0.057
63.6325;0.109
63.637;0.07
63.6416;0.237
63.6462;0.237
63.6508;-0.081
63.6554;0.034
63.6599;0.365
63.6645;0.02
63.6691;-0.019
63.6737;0.167
63.6783;0.17
63.6828;0.241
63.6874;0.112
63.692;-0.033
63.6966;-0.095
63.7012;-0.097
63.7058;-0.199
63.7103;0.142
63.7149;0.091
63.7195;0.148
63.7241;0.307
63.7287;0.073
63.7332;0.33
63.7378;0.329
63.7424;0.182
63.747;-0.14
63.7516;0.094
63.7561;0.173
63.7607;0.024
63.7653;0.155
63.7699;0.11
63.7745;0.189
63.7791;0.027
63.7836;0.045
63.7882;0.057
63.7928;0.119
63.7974;0.086
63.802;0.106
63.8065;0.015
63.8111;-0.117
63.8157;0.054
63.8203;0.054
63.8249;0.129
63.8294;0.164
63.834;-0.236
63.8386;0.208
63.8432;0.003
63.8478;0.263
63.8524;0.099
63.8569;0.038
63.8615;-0.098
63.8661;0.163
63.8707;0.2
63.8753;0.312
63.8798;-0.076
63.8844;0.15
63.889;-0.124
63.8936;0.164
63.8982;-0.092
63.9027;-0.181
63.9073;0.14
63.9119;0.033
63.9165;-0.297
63.9211;0.089
63.9257;0.029
63.9302;-0.152
63.9348;0.127
63.9394;0.206
63.944;-0.112
63.9486;0.208
63.9531;0.292
63.9577;0.044
63.9623;0.231
63.9669;0.187
63.9715;0.059
63.976;0.032
63.9806;-0.026
63.9852;0.09
63.9898;0.02
63.9944;0.147
63.9989;0.097
64.0035;0.138
64.0081;0.095
64.0127;0.21
64.0173;-0.076
64.0219;-0.016
64.0264;0.021
64.031;0.122
64.0356;0.224
64.0402;0.37
64.0448;-0.137
64.0493;0.114
64.0539;-0.018
64.0585;0.313
64.0631;0.174
64.0677;-0.033
64.0722;-0.071
64.0768;0.041
64.0814;0.191
64.086;0.121
64.0906;0.228
64.0952;-0.008
64.0997;0.047
64.1043;0.242
64.1089;-0.059
64.1135;0.123
64.1181;0.129
64.1226;0.05
64.1272;0.316
64.1318;-0.045
64.1364;0.138
64.141;0.063
64.1455;0.035
64.1501;-0.062
64.1547;0.323
64.1593;0.034
64.1639;-0.068
64.1685;0.014
64.173;0.05
64.1776;-0.056
64.1822;0.054
64.1868;0.172
64.1914;0.134
64.1959;0.252
64.2005;0.1
64.2051;-0.003
64.2097;0.192
64.2143;-0.192
64.2188;0.097
64.2234;0.085
64.228;0.055
64.2326;0.151
64.2372;0.006
64.2418;0.2
64.2463;0.096
64.2509;-0.007
64.2555;0.033
64.2601;0.165
64.2647;-0.038
64.2692;-0.124
64.2738;0.053
64.2784;-0.088
64.283;-0.02
64.2876;0.113
64.2921;0.148
64.2967;0.311
64.3013;-0.146
64.3059;0.022
64.3105;0.012
64.3151;-0.036
64.3196;-0.042
64.3242;0.086
64.3288;0.091
64.3334;0.04
64.338;0.323
64.3425;0.014
64.3471;0.117
64.3517;-0.096
64.3563;0.044
64.3609;0.338
64.3654;0.176
64.37;0.136
64.3746;-0.232
64.3792;-0.014
64.3838;0.306
64.3884;0.179
64.3929;0.209
64.3975;-0.104
64.4021;-0.076
64.4067;-0.061
64.4113;-0.022
64.4158;0.198
64.4204;0.064
64.425;-0.004
64.4296;0.166
64.4342;0.131
64.4387;-0.102
64.4433;0.206
64.4479;0.219
64.4525;0.136
64.4571;0.372
64.4617;0.079
64.4662;0.322
64.4708;0.156
64.4754;0.154
64.48;0.077
64.4846;0.237
64.4891;0.067
64.4937;0.414
64.4983;0.29
64.5029;0.616
64.5075;0.373
64.512;0.288
64.5166;0.329
64.5212;0.466
64.5258;0.398
64.5304;0.726
64.535;0.309
64.5395;0.684
64.5441;0.656
64.5487;0.541
64.5533;0.886
64.5579;0.693
64.5624;0.558
64.567;0.569
64.5716;0.475
64.5762;0.537
64.5808;0.638
64.5853;0.586
64.5899;0.612
64.5945;0.382
64.5991;0.366
64.6037;0.553
64.6083;0.189
64.6128;0.145
64.6174;0.303
64.622;0.392
64.6266;0.007
64.6312;0.209
64.6357;0.121
64.6403;0.262
64.6449;0.037
64.6495;0.209
64.6541;0.085
64.6586;0.186
64.6632;0.273
64.6678;0.39
64.6724;0.183
64.677;-0.13
64.6816;0.029
64.6861;0.113
64.6907;0.329
64.6953;0.307
64.6999;-0.03
64.7045;0.008
64.709;0.128
64.7136;0.282
64.7182;-0.055
64.7228;-0.047
64.7274;-0.167
64.7319;0.05
64.7365;-0.063
64.7411;0.294
64.7457;0.281
64.7503;-0.003
64.7549;0.275
64.7594;-0.005
64.764;-0.008
64.7686;0.301
64.7732;0.105
64.7778;-0.149
64.7823;0.021
64.7869;0.114
64.7915;0.003
64.7961;0.264
64.8007;0.019
64.8052;0.026
64.8098;0.016
64.8144;0.231
64.819;0.066
64.8236;0.032
64.8282;0.241
64.8327;0.231
64.8373;0.293
64.8419;0.176
64.8465;-0.127
64.8511;-0.018
64.8556;0.228
64.8602;0.043
64.8648;0.099
64.8694;-0.062
64.874;-0.063
64.8785;0.187
64.8831;0.259
64.8877;0.074
64.8923;-0.015
64.8969;0.303
64.9015;0.008
64.906;0.227
64.9106;0.29
64.9152;-0.006
64.9198;0.08
64.9244;0.03
64.9289;0.215
64.9335;0.129
64.9381;0.202
64.9427;0.123
64.9473;-0.089
64.9518;-0.02
64.9564;0.303
64.961;0.325
64.9656;0.143
64.9702;0.196
64.9748;-0.055
64.9793;0.131
64.9839;-0.001
64.9885;0.392
64.9931;-0.099
64.9977;0.157
65.0022;0.253
65.0068;-0.038
65.0114;0.121
65.016;0.15
65.0206;-0.085
65.0251;0.306
65.0297;0.123
65.0343;0.029
65.0389;0.007
65.0435;0.127
65.0481;0.242
65.0526;0.166
65.0572;0.096
65.0618;-0.179
65.0664;0.15
65.071;0.132
65.0755;-0.049
65.0801;0.007
65.0847;0.267
65.0893;0.078
65.0939;-0.034
65.0984;0.147
65.103;0.183
65.1076;-0.123
65.1122;0.113
65.1168;0.129
65.1214;0.139
65.1259;0.314
65.1305;0.103
65.1351;0.177
65.1397;0.009
65.1443;0.154
65.1488;0.211
65.1534;0.22
65.158;0.094
65.1626;0.002
65.1672;0.03
65.1717;0.112
65.1763;0.052
65.1809;-0.073
65.1855;0.232
65.1901;0.161
65.1947;0.11
65.1992;0.063
65.2038;-0.018
65.2084;-0.233
65.213;0.23
65.2176;0.263
65.2221;0.196
65.2267;-0.081
65.2313;0.049
65.2359;0.21
65.2405;0.135
65.245;0.13
65.2496;-0.029
65.2542;0.147
65.2588;0.218
65.2634;0.229
65.268;0.092
65.2725;0.138
65.2771;0.026
65.2817;0.272
65.2863;-0.023
65.2909;0.114
65.2954;0.159
65.3;0.089
65.3046;-0.071
65.3092;0.163
65.3138;0.138
65.3183;0.209
65.3229;0.115
65.3275;0.112
65.3321;-0.069
65.3367;0.067
65.3412;-0.101
65.3458;0.057
65.3504;0.091
65.355;0.006
65.3596;0.118
65.3642;0.026
65.3687;-0.153
65.3733;0.036
65.3779;0.052
65.3825;0.238
65.3871;0.252
65.3916;0.02
65.3962;0.448
65.4008;0.174
65.4054;0.147
65.41;0.228
65.4145;0.038
65.4191;0.128
65.4237;-0.122
65.4283;0.055
65.4329;0.033
65.4375;0.157
65.442;0.157
65.4466;0.122
65.4512;0.401
65.4558;0.14
65.4604;0.233
65.4649;0
65.4695;0.014
65.4741;-0.028
65.4787;0.18
65.4833;0.068
65.4878;-0.024
65.4924;-0.022
65.497;0.229
65.5016;0.113
65.5062;0.067
65.5108;0.289
65.5153;-0.001
65.5199;0.275
65.5245;0.137
65.5291;0.315
65.5337;0.424
65.5382;0.171
65.5428;0.069
65.5474;0.253
65.552;-0.011
65.5566;0.313
65.5611;0.001
65.5657;0.167
65.5703;0.345
65.5749;-0.037
65.5795;0.172
65.5841;0.151
65.5886;0.033
65.5932;0.134
65.5978;-0.033
65.6024;0.268
65.607;0.339
65.6115;-0.134
65.6161;0.142
65.6207;0.203
65.6253;-0.172
65.6299;0.024
65.6344;0.111
65.639;0.36
65.6436;0.134
65.6482;0.159
65.6528;0.135
65.6574;-0.046
65.6619;-0.057
65.6665;-0.009
65.6711;0.282
65.6757;0.258
65.6803;0.112
65.6848;0.191
65.6894;0.365
65.694;0.114
65.6986;0.21
65.7032;0.283
65.7077;-0.009
65.7123;0.028
65.7169;0.167
65.7215;0.02
65.7261;-0.019
65.7307;0.01
65.7352;0.331
65.7398;0.003
65.7444;0.2
65.749;0.147
65.7536;0.238
65.7581;0.113
65.7627;0.298
65.7673;0.291
65.7719;0.272
65.7765;0.254
65.781;0.125
65.7856;0.03
65.7902;0.073
65.7948;0.572
65.7994;0.167
65.804;0.225
65.8085;0.241
65.8131;0.17
65.8177;0.095
65.8223;0.05
65.8269;0.239
65.8314;0.067
65.836;0.128
65.8406;0.467
65.8452;0.401
65.8498;0.082
65.8543;-0.093
65.8589;-0.086
65.8635;0.375
65.8681;0.263
65.8727;0.11
65.8773;0.149
65.8818;0.427
65.8864;0.254
65.891;0.291
65.8956;0.511
65.9002;-0.012
65.9047;0.294
65.9093;0.327
65.9139;0.315
65.9185;0.364
65.9231;0.519
65.9276;0.322
65.9322;0.416
65.9368;0.302
65.9414;0.596
65.946;0.708
65.9506;0.515
65.9551;0.416
65.9597;0.346
65.9643;0.48
65.9689;0.308
65.9735;0.475
65.978;0.167
65.9826;0.433
65.9872;0.364
65.9918;0.48
65.9964;0.232
66.0009;0.164
66.0055;0.254
66.0101;0.144
66.0147;0.412
66.0193;0.129
66.0239;0.1
66.0284;0.258
66.033;0.27
66.0376;0.509
66.0422;0.421
66.0468;0.096
66.0513;0.288
66.0559;0.409
66.0605;0.281
66.0651;0.167
66.0697;0.134
66.0742;0.136
66.0788;0.045
66.0834;0.491
66.088;0.04
66.0926;0.025
66.0972;0.261
66.1017;0.038
66.1063;0.073
66.1109;0.143
66.1155;0.207
66.1201;0.319
66.1246;0.19
66.1292;0.277
66.1338;0.31
66.1384;-0.038
66.143;0.005
66.1475;0.108
66.1521;0.117
66.1567;0.229
66.1613;0.26
66.1659;0.223
66.1705;0.077
66.175;0.093
66.1796;0.383
66.1842;0.045
66.1888;0.117
66.1934;0.178
66.1979;0.111
66.2025;0.2
66.2071;0.089
66.2117;0.187
66.2163;0.008
66.2208;0.092
66.2254;0.143
66.23;0.389
66.2346;0.07
66.2392;-0.16
66.2438;0.022
66.2483;0.182
66.2529;0.058
66.2575;0.191
66.2621;0.178
66.2667;-0.076
66.2712;0.262
66.2758;0.164
66.2804;-0.279
66.285;0.108
66.2896;0.124
66.2941;0.129
66.2987;0.178
66.3033;-0.126
66.3079;0.089
66.3125;0.063
66.3171;-0.12
66.3216;0.214
66.3262;0.395
66.3308;0.23
66.3354;0.225
66.34;0.093
66.3445;0.074
66.3491;0.084
66.3537;0.302
66.3583;0.066
66.3629;0.101
66.3674;0.137
66.372;0.023
66.3766;0.311
66.3812;0.013
66.3858;0.113
66.3904;0.141
66.3949;-0.074
66.3995;0.228
66.4041;0.214
66.4087;0.118
66.4133;-0.024
66.4178;0.509
66.4224;0.303
66.427;0.113
66.4316;0.178
66.4362;0.164
66.4407;0.202
66.4453;0.251
66.4499;0.063
66.4545;0.001
66.4591;0.121
66.4637;0.154
66.4682;0.456
66.4728;0.002
66.4774;0.003
66.482;0.112
66.4866;0.3
66.4911;0.296
66.4957;0.201
66.5003;0.288
66.5049;0.167
66.5095;-0.022
66.514;0.046
66.5186;0.119
66.5232;0.127
66.5278;0.168
66.5324;0.063
66.537;0.17
66.5415;-0.011
66.5461;0.05
66.5507;0.179
66.5553;0.014
66.5599;-0.011
66.5644;0.059
66.569;0.296
66.5736;0.117
66.5782;0.208
66.5828;0.204
66.5873;0.028
66.5919;0.198
66.5965;0.12
66.6011;-0.027
66.6057;-0.139
66.6103;0.053
66.6148;-0.039
66.6194;0.107
66.624;0.067
66.6286;0.195
66.6332;-0.021
66.6377;0.044
66.6423;0.265
66.6469;0.342
66.6515;0.026
66.6561;0.089
66.6606;0.137
66.6652;-0.019
66.6698;0.143
66.6744;-0.022
66.679;-0.025
66.6836;-0.069
66.6881;0.298
66.6927;-0.219
66.6973;0.02
66.7019;0.261
66.7065;0.176
66.711;0.322
66.7156;0.006
66.7202;0.093
66.7248;0.037
66.7294;0.115
66.7339;0.199
66.7385;0.222
66.7431;0.04
66.7477;0.245
66.7523;0.019
66.7568;0.203
66.7614;0.09
66.766;-0.078
66.7706;0.214
66.7752;0.054
66.7798;0.324
66.7843;-0.148
66.7889;0.339
66.7935;0.178
66.7981;0.255
66.8027;0.129
66.8072;0.004
66.8118;-0.068
66.8164;0.094
66.821;0.033
66.8256;-0.031
66.8301;-0.03
66.8347;0.19
66.8393;0.065
66.8439;0.145
66.8485;0.269
66.8531;0.146
66.8576;0.127
66.8622;0.329
66.8668;0.294
66.8714;-0.009
66.876;0.037
66.8805;-0.004
66.8851;-0.136
66.8897;0.007
66.8943;-0.049
66.8989;0.129
66.9034;0.08
66.908;0.082
66.9126;0.329
66.9172;0.043
66.9218;-0.024
66.9264;0.053
66.9309;0.346
66.9355;0.218
66.9401;0.18
66.9447;0.019
66.9493;0.165
66.9538;0.111
66.9584;0.1
66.963;0.08
66.9676;0.48
66.9722;0.318
66.9767;-0.033
66.9813;-0.092
66.9859;0.009
66.9905;0.244
66.9951;0.515
66.9997;0.134
67.0042;-0.115
67.0088;0.102
67.0134;0.241
67.018;0.018
67.0226;-0.048
67.0271;0.04
67.0317;0.083
67.0363;0.169
67.0409;-0.008
67.0455;0.164
67.05;0.006
67.0546;0.049
67.0592;0.428
67.0638;-0.003
67.0684;0.231
67.073;0.306
67.0775;0.233
67.0821;0.131
67.0867;0.019
67.0913;0.289
67.0959;-0.024
67.1004;0.036
67.105;0.42
67.1096;0.357
67.1142;0.169
67.1188;0.193
67.1233;0.105
67.1279;0.469
67.1325;0.202
67.1371;0.132
67.1417;0.312
67.1463;0.085
67.1508;0.036
67.1554;0.013
67.16;0.317
67.1646;0.168
67.1692;0.236
67.1737;-0.026
67.1783;0.218
67.1829;0.005
67.1875;0.372
67.1921;0.141
67.1966;0.257
67.2012;0.2
67.2058;0.297
67.2104;0.32
67.215;0.281
67.2196;0.396
67.2241;0.059
67.2287;0.234
67.2333;0.131
67.2379;0.192
67.2425;0.231
67.247;0.106
67.2516;0.168
67.2562;0.347
67.2608;0.142
67.2654;0.284
67.2699;0.28
67.2745;0.296
67.2791;0.515
67.2837;0.405
67.2883;0.365
67.2929;0.327
67.2974;0.29
67.302;0.565
67.3066;0.484
67.3112;0.618
67.3158;0.358
67.3203;0.429
67.3249;0.734
67.3295;0.763
67.3341;1.187
67.3387;1.274
67.3432;1.709
67.3478;1.4
67.3524;2.176
67.357;2.411
67.3616;3.228
67.3662;3.554
67.3707;4.012
67.3753;4.291
67.3799;4.764
67.3845;5.399
67.3891;5.799
67.3936;5.858
67.3982;5.948
67.4028;6.03
67.4074;5.649
67.412;5.526
67.4165;5.837
67.4211;5.503
67.4257;5.822
67.4303;5.894
67.4349;5.872
67.4395;6.269
67.444;6.129
67.4486;5.607
67.4532;5.69
67.4578;4.804
67.4624;4.408
67.4669;4.063
67.4715;3.771
67.4761;3.434
67.4807;2.87
67.4853;2.541
67.4898;1.816
67.4944;2.084
67.499;1.51
67.5036;1.44
67.5082;1.564
67.5128;1.015
67.5173;0.806
67.5219;0.85
67.5265;0.525
67.5311;0.496
67.5357;0.514
67.5402;0.38
67.5448;0.511
67.5494;0.237
67.554;0.437
67.5586;0.362
67.5631;0.444
67.5677;0.26
67.5723;0.145
67.5769;0.289
67.5815;-0.008
67.5861;0.293
67.5906;-0.196
67.5952;0.19
67.5998;0.367
67.6044;0.331
67.609;0.211
67.6135;0.151
67.6181;0.165
67.6227;0.094
67.6273;0.148
67.6319;-0.165
67.6364;0.06
67.641;0.256
67.6456;0.54
67.6502;0.41
67.6548;0.464
67.6594;0.246
67.6639;0.385
67.6685;0.187
67.6731;-0.031
67.6777;0.452
67.6823;0.379
67.6868;0.186
67.6914;0.234
67.696;0.247
67.7006;0.174
67.7052;0.265
67.7097;0.176
67.7143;0.266
67.7189;0.123
67.7235;0.166
67.7281;0.19
67.7327;0.16
67.7372;0.219
67.7418;-0.158
67.7464;0.148
67.751;0.212
67.7556;0.305
67.7601;0.227
67.7647;-0.095
67.7693;0.151
67.7739;0.144
67.7785;0.591
67.783;0.288
67.7876;0.083
67.7922;-0.069
67.7968;0.176
67.8014;0.317
67.806;0.184
67.8105;0.158
67.8151;0.336
67.8197;0.315
67.8243;0.16
67.8289;0.137
67.8334;0.102
67.838;0.128
67.8426;-0.048
67.8472;0.009
67.8518;-0.027
67.8563;0.144
67.8609;0.207
67.8655;0.062
67.8701;-0.146
67.8747;0.05
67.8793;-0.056
67.8838;-0.024
67.8884;0.095
67.893;-0.193
67.8976;0.006
67.9022;0.213
67.9067;-0.053
67.9113;0.045
67.9159;-0.042
67.9205;0.055
67.9251;0.312
67.9296;0.132
67.9342;-0.24
67.9388;0.067
67.9434;0.112
67.948;-0.114
67.9526;0.148
67.9571;-0.019
67.9617;0.031
67.9663;0.001
67.9709;-0.037
67.9755;-0.041
67.98;0.462
67.9846;0.025
67.9892;0.018
67.9938;0.043
67.9984;-0.032
68.0029;0.22
68.0075;0.137
68.0121;0.189
68.0167;0.033
68.0213;0.057
68.0259;-0.094
68.0304;0.036
68.035;0.042
68.0396;0.184
68.0442;0.236
68.0488;0.131
68.0533;0.165
68.0579;0.006
68.0625;-0.079
68.0671;0.216
68.0717;0.08
68.0762;0.148
68.0808;0.008
68.0854;0.259
68.09;-0.027
68.0946;0.017
68.0991;0.038
68.1037;0.165
68.1083;0.147
68.1129;0.009
68.1175;0.023
68.1221;0.176
68.1266;0.164
68.1312;-0.076
68.1358;0.231
68.1404;0.237
68.145;0.263
68.1495;0.141
68.1541;0.4
68.1587;0.439
68.1633;0.252
68.1679;0.385
68.1724;0.234
68.177;0.323
68.1816;0.367
68.1862;0.508
68.1908;0.474
68.1954;0.405
68.1999;0.52
68.2045;0.814
68.2091;0.925
68.2137;1.031
68.2183;1.074
68.2228;1.344
68.2274;1.156
68.232;1.136
68.2366;0.903
68.2412;0.952
68.2457;0.87
68.2503;0.861
68.2549;0.759
68.2595;1.057
68.2641;0.648
68.2687;0.8
68.2732;0.532
68.2778;0.585
68.2824;0.447
68.287;0.745
68.2916;0.408
68.2961;0.469
68.3007;0.373
68.3053;0.258
68.3099;0.536
68.3145;0.345
68.319;0.424
68.3236;0.255
68.3282;0.3
68.3328;0.199
68.3374;-0.024
68.342;0.522
68.3465;0.256
68.3511;0.195
68.3557;0.264
68.3603;0.122
68.3649;0.348
68.3694;0.074
68.374;0.046
68.3786;-0.137
68.3832;0.473
68.3878;0.043
68.3923;0.093
68.3969;0.239
68.4015;0.039
68.4061;0.108
68.4107;0.093
68.4153;-0.193
68.4198;-0.088
68.4244;0.147
68.429;0.034
68.4336;0.258
68.4382;0.143
68.4427;0.209
68.4473;-0.083
68.4519;0.132
68.4565;0.047
68.4611;-0.09
68.4656;0.129
68.4702;-0.079
68.4748;0.229
68.4794;-0.06
68.484;-0.039
68.4886;0.054
68.4931;0.291
68.4977;0.015
68.5023;-0.018
68.5069;0.23
68.5115;0.106
68.516;0.156
68.5206;0.154
68.5252;0.115
68.5298;0.148
68.5344;-0.231
68.5389;0.253
68.5435;-0.09
68.5481;0.177
68.5527;0.18
68.5573;0.149
68.5619;0.277
68.5664;0.392
68.571;0.222
68.5756;0.133
68.5802;-0.127
68.5848;0.065
68.5893;0.017
68.5939;-0.007
68.5985;0.109
68.6031;0.263
68.6077;0.158
68.6122;0.119
68.6168;0.161
68.6214;-0.123
68.626;-0.091
68.6306;0.12
68.6352;-0.17
68.6397;0.274
68.6443;0.186
68.6489;0.15
68.6535;0.329
68.6581;0.14
68.6626;0.185
68.6672;0.04
68.6718;0.183
68.6764;0.123
68.681;-0.247
68.6855;0.149
68.6901;0.067
68.6947;0.099
68.6993;0.073
68.7039;0.09
68.7085;-0.061
68.713;0.081
68.7176;0.121
68.7222;-0.112
68.7268;0.345
68.7314;-0.216
68.7359;0.034
68.7405;-0.058
68.7451;0.136
68.7497;0.021
68.7543;-0.205
68.7588;-0.017
68.7634;0.06
68.768;-0.048
68.7726;0.308
68.7772;0.076
68.7818;0.226
68.7863;0.183
68.7909;-0.08
68.7955;0.038
68.8001;0.056
68.8047;0.366
68.8092;0.058
68.8138;0.215
68.8184;0.147
68.823;0.265
68.8276;0.262
68.8321;0.19
68.8367;0.296
68.8413;-0.05
68.8459;0.124
68.8505;0.069
68.8551;0.075
68.8596;0.256
68.8642;-0.022
68.8688;0.128
68.8734;0.318
68.878;0.064
68.8825;0.306
68.8871;0.161
68.8917;0.242
68.8963;0.379
68.9009;0.198
68.9054;0.163
68.91;-0.14
68.9146;0.115
68.9192;0.249
68.9238;0.065
68.9284;0.165
68.9329;0.129
68.9375;0.175
68.9421;0.074
68.9467;0.215
68.9513;0.152
68.9558;-0.086
68.9604;0.285
68.965;0.299
68.9696;-0.034
68.9742;-0.132
68.9787;0.118
68.9833;0.092
68.9879;0.132
68.9925;0.215
68.9971;-0.13
69.0017;0.113
69.0062;-0.06
69.0108;0.15
69.0154;0.165
69.02;0.11
69.0246;0.041
69.0291;-0.08
69.0337;0.28
69.0383;0.209
69.0429;0.143
69.0475;0.16
69.052;0.114
69.0566;0.281
69.0612;0.097
69.0658;0.111
69.0704;0.294
69.075;0.04
69.0795;0.105
69.0841;-0.029
69.0887;-0.128
69.0933;0.033
69.0979;0.089
69.1024;0.153
69.107;0.094
69.1116;0.15
69.1162;0.371
69.1208;0.219
69.1253;0.099
69.1299;0.028
69.1345;0.21
69.1391;0.185
69.1437;-0.022
69.1483;0.258
69.1528;0.306
69.1574;0.24
69.162;0.21
69.1666;0.22
69.1712;0.337
69.1757;0.167
69.1803;0.218
69.1849;0.085
69.1895;0.186
69.1941;0.292
69.1986;0.101
69.2032;0.045
69.2078;0.085
69.2124;0.174
69.217;0.185
69.2216;0.173
69.2261;0.093
69.2307;0.106
69.2353;0.219
69.2399;0.234
69.2445;0.186
69.249;0.145
69.2536;0.317
69.2582;0.277
69.2628;0.011
69.2674;0.07
69.2719;0.124
69.2765;0.279
69.2811;0.327
69.2857;0.15
69.2903;0.085
69.2949;-0.036
69.2994;-0.044
69.304;0.063
69.3086;0.142
69.3132;0.133
69.3178;0.01
69.3223;0.323
69.3269;0.268
69.3315;-0.017
69.3361;0.155
69.3407;0.241
69.3452;-0.005
69.3498;0.262
69.3544;0.026
69.359;-0.021
69.3636;0.022
69.3682;-0.001
69.3727;-0.015
69.3773;-0.081
69.3819;0.122
69.3865;0.079
69.3911;0.139
69.3956;0.13
69.4002;0.052
69.4048;0.114
69.4094;0.098
69.414;0.03
69.4185;0.127
69.4231;0.036
69.4277;0.091
69.4323;0.129
69.4369;0.24
69.4415;-0.013
69.446;0.266
69.4506;-0.005
69.4552;-0.017
69.4598;0.345
69.4644;-0.084
69.4689;0.116
69.4735;0.081
69.4781;0.019
69.4827;0.22
69.4873;0.002
69.4918;0.344
69.4964;0.236
69.501;0.077
69.5056;0.04
69.5102;0.092
69.5147;0.254
69.5193;0.008
69.5239;0.27
69.5285;0.33
69.5331;0.163
69.5377;0.06
69.5422;0.078
69.5468;0.142
69.5514;0.27
69.556;0.272
69.5606;0.453
69.5651;0.381
69.5697;0.55
69.5743;0.376
69.5789;0.336
69.5835;0.398
69.588;0.321
69.5926;0.516
69.5972;0.34
69.6018;0.595
69.6064;0.656
69.611;0.579
69.6155;0.685
69.6201;0.818
69.6247;0.768
69.6293;0.837
69.6339;0.856
69.6384;0.868
69.643;1.096
69.6476;0.914
69.6522;0.817
69.6568;0.78
69.6613;0.853
69.6659;0.82
69.6705;0.61
69.6751;0.864
69.6797;0.569
69.6843;0.669
69.6888;0.599
69.6934;0.678
69.698;0.37
69.7026;0.402
69.7072;0.34
69.7117;0.743
69.7163;0.483
69.7209;0.194
69.7255;0.143
69.7301;0.288
69.7346;0.234
69.7392;0.564
69.7438;0.444
69.7484;-0.065
69.753;0.219
69.7576;0.215
69.7621;-0.039
69.7667;0.029
69.7713;0.278
69.7759;0.249
69.7805;0.182
69.785;0.351
69.7896;-0.103
69.7942;0.04
69.7988;0.378
69.8034;0.142
69.8079;0.064
69.8125;0.221
69.8171;-0.021
69.8217;-0.016
69.8263;0.21
69.8309;0.077
69.8354;0.022
69.84;0.057
69.8446;0.292
69.8492;0.16
69.8538;0.304
69.8583;0.169
69.8629;0.04
69.8675;0.107
69.8721;0.361
69.8767;0.063
69.8812;0.255
69.8858;0.103
69.8904;0.146
69.895;0.016
69.8996;0.33
69.9042;0.053
69.9087;-0.008
69.9133;0.158
69.9179;0.277
69.9225;0.258
69.9271;-0.053
69.9316;-0.009
69.9362;-0.203
69.9408;0.013
69.9454;0.237
69.95;-0.021
69.9545;0.194
69.9591;0.094
69.9637;0.256
69.9683;0.074
69.9729;-0.022
69.9775;-0.047
69.982;0.129
69.9866;0.4
69.9912;0.195
69.9958;0.115
70.0004;-0.012
70.0049;0.148
70.0095;0.13
70.0141;0.441
70.0187;0.19
70.0233;0.238
70.0278;0.239
70.0324;0.245
70.037;0.257
70.0416;0.182
70.0462;0.092
70.0508;-0.034
70.0553;0.249
70.0599;0.263
70.0645;0.213
70.0691;-0.054
70.0737;0.226
70.0782;0.148
70.0828;0.238
70.0874;0.207
70.092;0.05
70.0966;-0.021
70.1011;0.099
70.1057;0.281
70.1103;0.256
70.1149;-0.019
70.1195;0.117
70.1241;0.101
70.1286;0.164
70.1332;0.319
70.1378;0.371
70.1424;0.14
70.147;0.326
70.1515;0.134
70.1561;0.133
70.1607;0.206
70.1653;0.085
70.1699;0.202
70.1744;0.236
70.179;0.193
70.1836;0.046
70.1882;0.237
70.1928;0.237
70.1974;0.277
70.2019;0.068
70.2065;0.235
70.2111;0.015
70.2157;0.235
70.2203;0.179
70.2248;-0.086
70.2294;-0.21
70.234;0.117
70.2386;-0.016
70.2432;0.066
70.2477;0.308
70.2523;-0.082
70.2569;0.161
70.2615;0.056
70.2661;0.262
70.2707;0.276
70.2752;-0.018
70.2798;-0.048
70.2844;-0.013
70.289;0.291
70.2936;0.183
70.2981;0.06
70.3027;0.315
70.3073;0.041
70.3119;0.152
70.3165;0.127
70.321;0.162
70.3256;0.044
70.3302;0.098
70.3348;0.06
70.3394;0.058
70.344;-0.005
70.3485;0.026
70.3531;0.118
70.3577;-0.065
70.3623;-0.101
70.3669;0.228
70.3714;0.024
70.376;0.036
70.3806;0.384
70.3852;0.191
70.3898;-0.024
70.3943;-0.012
70.3989;0.175
70.4035;0.143
70.4081;0.229
70.4127;0.1
70.4173;0.114
70.4218;0.156
70.4264;0.135
70.431;0.194
70.4356;0.204
70.4402;0.044
70.4447;0.06
70.4493;0.161
70.4539;0.121
70.4585;0.226
70.4631;0.005
70.4676;0.04
70.4722;0.368
70.4768;0.146
70.4814;0.437
70.486;0.189
70.4906;-0.031
70.4951;0.079
70.4997;0.066
70.5043;0.095
70.5089;0.243
70.5135;-0.059
70.518;0.025
70.5226;0.034
70.5272;0.104
70.5318;0.079
70.5364;-0.055
70.5409;0.24
70.5455;0.35
70.5501;0.149
70.5547;0.146
70.5593;0.172
70.5639;0.293
70.5684;0.148
70.573;0.178
70.5776;0.03
70.5822;0.1
70.5868;0.18
70.5913;0.305
70.5959;0.309
70.6005;0.066
70.6051;0.036
70.6097;0.088
70.6142;0.216
70.6188;0.248
70.6234;0.021
70.628;0.234
70.6326;0.222
70.6372;0.266
70.6417;-0.007
70.6463;0.476
70.6509;0.169
70.6555;-0.038
70.6601;0.136
70.6646;0.15
70.6692;-0.028
70.6738;0.004
70.6784;0.257
70.683;0.147
70.6875;0.221
70.6921;0.094
70.6967;0.354
70.7013;0.35
70.7059;0.234
70.7105;0.242
70.715;0.4
70.7196;0.423
70.7242;0.401
70.7288;0.228
70.7334;0.507
70.7379;0.209
70.7425;0.526
70.7471;0.425
70.7517;0.58
70.7563;0.472
70.7608;0.025
70.7654;0.483
70.77;0.294
70.7746;0.097
70.7792;0.427
70.7838;0.338
70.7883;0.246
70.7929;0.162
70.7975;0.322
70.8021;0.499
70.8067;0.205
70.8112;0.384
70.8158;0.132
70.8204;0.137
70.825;0.153
70.8296;0.146
70.8341;0.193
70.8387;0.183
70.8433;0.076
70.8479;0.131
70.8525;0.335
70.857;0.448
70.8616;0.234
70.8662;0.184
70.8708;0.141
70.8754;0.355
70.88;0.067
70.8845;0.246
70.8891;-0.007
70.8937;0.256
70.8983;-0.137
70.9029;0.116
70.9074;0.215
70.912;0.231
70.9166;0.135
70.9212;-0.007
70.9258;0.13
70.9303;0.128
70.9349;0.1
70.9395;0.241
70.9441;-0.068
70.9487;0.171
70.9533;-0.046
70.9578;0.15
70.9624;0.224
70.967;0.083
70.9716;0.101
70.9762;0.242
70.9807;0.068
70.9853;-0.004
70.9899;0.132
70.9945;0.132
70.9991;0.137
71.0036;-0.093
71.0082;0.002
71.0128;-0.032
71.0174;0.086
71.022;0.204
71.0266;0.104
71.0311;0.179
71.0357;0.149
71.0403;-0.085
71.0449;0.086
71.0495;0.225
71.054;-0.087
71.0586;-0.12
71.0632;0.161
71.0678;0.044
71.0724;0.016
71.0769;-0.036
71.0815;0.209
71.0861;0.119
71.0907;0.189
71.0953;0.078
71.0999;0.119
71.1044;0.186
71.109;-0.011
71.1136;0.076
71.1182;0.094
71.1228;0.141
71.1273;-0.047
71.1319;0.155
71.1365;-0.066
71.1411;-0.003
71.1457;0.276
71.1502;0.151
71.1548;0.205
71.1594;0.24
71.164;0.164
71.1686;0.179
71.1732;0.251
71.1777;0.304
71.1823;0.262
71.1869;0.142
71.1915;0.171
71.1961;0.426
71.2006;0.27
71.2052;0.472
71.2098;0.4
71.2144;0.529
71.219;0.389
71.2235;0.329
71.2281;0.404
71.2327;0.215
71.2373;0.296
71.2419;0.227
71.2465;0.428
71.251;0.05
71.2556;0.472
71.2602;0.355
71.2648;0.359
71.2694;0.271
71.2739;0.195
71.2785;0.366
71.2831;0.061
71.2877;0.197
71.2923;-0.078
71.2968;0.258
71.3014;0.32
71.306;0.162
71.3106;0.429
71.3152;0.263
71.3198;0.409
71.3243;0.141
71.3289;0.199
71.3335;0.19
71.3381;0.407
71.3427;0.467
71.3472;0.139
71.3518;-0.026
71.3564;0.094
71.361;0.219
71.3656;0.204
71.3701;0.277
71.3747;0.093
71.3793;0.062
71.3839;-0.083
71.3885;0.152
71.3931;0.165
71.3976;-0.009
71.4022;0.213
71.4068;-0.096
71.4114;-0.002
71.416;0.125
71.4205;0.287
71.4251;0.175
71.4297;0.266
71.4343;0.153
71.4389;0.404
71.4434;0.293
71.448;0.162
71.4526;0.3
71.4572;0.235
71.4618;0.234
71.4664;-0.061
71.4709;0.133
71.4755;-0.043
71.4801;0.041
71.4847;0.207
71.4893;0.018
71.4938;0.185
71.4984;0.002
71.503;0.04
71.5076;0.089
71.5122;-0.085
71.5167;-0.104
71.5213;0.144
71.5259;0.021
71.5305;0.061
71.5351;0.124
71.5397;-0.032
71.5442;0.074
71.5488;0.006
71.5534;0.208
71.558;0.074
71.5626;0.206
71.5671;0.187
71.5717;-0.056
71.5763;0.163
71.5809;0.187
71.5855;0.13
71.59;0.251
71.5946;-0.018
71.5992;0.159
71.6038;0.161
71.6084;0.22
71.613;0.271
71.6175;0.191
71.6221;0.093
71.6267;0.058
71.6313;0.035
71.6359;0.116
71.6404;0.024
71.645;-0.027
71.6496;0.157
71.6542;-0.067
71.6588;0.303
71.6633;0.166
71.6679;0.188
71.6725;0.324
71.6771;0.18
71.6817;0.143
71.6863;0.126
71.6908;0.208
71.6954;0.087
71.7;-0.003
71.7046;0.148
71.7092;0.091
71.7137;0.245
71.7183;0.224
71.7229;0.064
71.7275;0.26
71.7321;0.221
71.7366;-0.048
71.7412;0.064
71.7458;0.231
71.7504;0.113
71.755;0.16
71.7596;0.269
71.7641;0.235
71.7687;0.083
71.7733;0.208
71.7779;0.279
71.7825;0.13
71.787;0.108
71.7916;0.096
71.7962;0.195
71.8008;0.348
71.8054;0.182
71.8099;0.16
71.8145;-0.121
71.8191;0.314
71.8237;0.122
71.8283;0.239
71.8329;0.111
71.8374;0.072
71.842;0.278
71.8466;0.205
71.8512;0.213
71.8558;0.423
71.8603;0.05
71.8649;0.003
71.8695;0.14
71.8741;0.013
71.8787;0.17
71.8832;0.072
71.8878;0.219
71.8924;0.15
71.897;0.119
71.9016;0.189
71.9062;0.306
71.9107;0.202
71.9153;0.005
71.9199;0.14
71.9245;0.185
71.9291;-0.094
71.9336;-0.039
71.9382;0.122
71.9428;0.29
71.9474;0.019
71.952;0.163
71.9565;0.14
71.9611;0.21
71.9657;0.125
71.9703;-0.034
71.9749;-0.046
71.9795;0.089
71.984;0.099
71.9886;0.033
71.9932;0.111
71.9978;0.171
72.0024;0.085
72.0069;0.184
72.0115;0.142
72.0161;0.41
72.0207;0.152
72.0253;0.151
72.0298;0.339
72.0344;0.085
72.039;0.252
72.0436;0.223
72.0482;0.106
72.0528;0.072
72.0573;0.232
72.0619;0.264
72.0665;0.156
72.0711;0.262
72.0757;0.295
72.0802;-0.103
72.0848;0.258
72.0894;0.151
72.094;0.155
72.0986;0.222
72.1031;0.13
72.1077;-0.055
72.1123;0.063
72.1169;0.398
72.1215;0.248
72.1261;0.062
72.1306;0.364
72.1352;0.377
72.1398;0.213
72.1444;0.114
72.149;0.069
72.1535;0.374
72.1581;0.224
72.1627;0.162
72.1673;-0.091
72.1719;0.196
72.1764;0.345
72.181;0.214
72.1856;0.178
72.1902;0.373
72.1948;0.43
72.1994;0.183
72.2039;-0.025
72.2085;0.188
72.2131;0.132
72.2177;0.239
72.2223;-0.134
72.2268;0.196
72.2314;0.011
72.236;0.129
72.2406;-0.038
72.2452;0.182
72.2497;-0.052
72.2543;0.287
72.2589;0.145
72.2635;0.063
72.2681;-0.046
72.2726;0.098
72.2772;-0.114
72.2818;0.249
72.2864;0.18
72.291;0.054
72.2956;-0.079
72.3001;0.155
72.3047;0.141
72.3093;0.235
72.3139;0.37
72.3185;0.208
72.323;0.039
72.3276;0.139
72.3322;0.297
72.3368;0.105
72.3414;0.026
72.3459;0.16
72.3505;0.12
72.3551;0.433
72.3597;0.235
72.3643;-0.036
72.3689;0.181
72.3734;0.093
72.378;-0.019
72.3826;0.208
72.3872;0.17
72.3918;0.202
72.3963;0.039
72.4009;0.152
72.4055;0.179
72.4101;0.221
72.4147;-0.054
72.4192;0.136
72.4238;-0.051
72.4284;0.077
72.433;0.144
72.4376;0.231
72.4422;0.109
72.4467;0.259
72.4513;0.129
72.4559;0.135
72.4605;-0.123
72.4651;0.106
72.4696;-0.101
72.4742;0.052
72.4788;0.311
72.4834;0.042
72.488;0.282
72.4925;-0.04
72.4971;0.308
72.5017;0.17
72.5063;0.233
72.5109;0.05
72.5155;0
72.52;0.141
72.5246;0.236
72.5292;0.205
72.5338;0.139
72.5384;-0.033
72.5429;0.182
72.5475;0.693
72.5521;0.164
72.5567;0.29
72.5613;-0.123
72.5658;0.085
72.5704;0.38
72.575;0.092
72.5796;0.057
72.5842;0.424
72.5888;0.182
72.5933;0.2
72.5979;0.139
72.6025;0.332
72.6071;0.148
72.6117;0.111
72.6162;0.152
72.6208;0.131
72.6254;0.5
72.63;0.407
72.6346;0.172
72.6391;0.15
72.6437;0.182
72.6483;0.203
72.6529;0.437
72.6575;0.272
72.6621;0.183
72.6666;0.319
72.6712;0.213
72.6758;0.184
72.6804;0.312
72.685;0.199
72.6895;0.089
72.6941;0.25
72.6987;0.213
72.7033;0.188
72.7079;0.309
72.7124;-0.116
72.717;0.333
72.7216;0.231
72.7262;0.225
72.7308;0.21
72.7354;0.242
72.7399;0.26
72.7445;0.398
72.7491;0.15
72.7537;0.014
72.7583;0.091
72.7628;0.126
72.7674;0.401
72.772;0.279
72.7766;0.19
72.7812;0.235
72.7857;0.345
72.7903;0.103
72.7949;0.236
72.7995;0.249
72.8041;0.534
72.8087;0.025
72.8132;0.143
72.8178;0.202
72.8224;0.192
72.827;0.226
72.8316;0.019
72.8361;-0.082
72.8407;-0.057
72.8453;0.357
72.8499;0.084
72.8545;0.356
72.859;0.161
72.8636;0.132
72.8682;0.242
72.8728;0.154
72.8774;0.198
72.882;0.322
72.8865;0.208
72.8911;0.198
72.8957;0.175
72.9003;0.209
72.9049;0.124
72.9094;0.116
72.914;0.221
72.9186;0.297
72.9232;-0.004
72.9278;0.124
72.9323;0.117
72.9369;0.122
72.9415;0.028
72.9461;0.223
72.9507;0.309
72.9553;0.114
72.9598;0.133
72.9644;0.253
72.969;0.167
72.9736;0.074
72.9782;0.156
72.9827;-0.009
72.9873;0.075
72.9919;0.162
72.9965;0.12
73.0011;0.143
73.0056;0.165
73.0102;-0.031
73.0148;0.107
73.0194;0.243
73.024;0.163
73.0286;0.141
73.0331;0.197
73.0377;0.332
73.0423;0.21
73.0469;0.371
73.0515;0.131
73.056;0.19
73.0606;0.293
73.0652;0.226
73.0698;0.036
73.0744;0.028
73.0789;0.16
73.0835;0.18
73.0881;-0.007
73.0927;0.015
73.0973;-0.003
73.1019;0.189
73.1064;0.155
73.111;0.116
73.1156;0.125
73.1202;0.319
73.1248;0.252
73.1293;0.109
73.1339;0.238
73.1385;0.168
73.1431;0.193
73.1477;0.063
73.1522;0.19
73.1568;0.312
73.1614;0.064
73.166;0.088
73.1706;0.046
73.1752;0.011
73.1797;0.27
73.1843;0.104
73.1889;0.273
73.1935;0.096
73.1981;0.04
73.2026;0.244
73.2072;0.15
73.2118;0.306
73.2164;0.087
73.221;0.096
73.2255;0.122
73.2301;0.189
73.2347;0.233
73.2393;0.301
73.2439;0.144
73.2485;0.132
73.253;0.135
73.2576;0.272
73.2622;0.095
73.2668;0.065
73.2714;0.114
73.2759;-0.019
73.2805;0.123
73.2851;0.315
73.2897;0.231
73.2943;0.107
73.2988;0.239
73.3034;0.11
73.308;0.249
73.3126;0.11
73.3172;0.326
73.3218;0.108
73.3263;0.257
73.3309;0.19
73.3355;0.102
73.3401;-0.109
73.3447;0.018
73.3492;0.102
73.3538;0.221
73.3584;-0.001
73.363;0.1
73.3676;0.211
73.3721;0.164
73.3767;0.075
73.3813;0.138
73.3859;0.073
73.3905;0.142
73.3951;0.125
73.3996;0.114
73.4042;0.056
73.4088;0.182
73.4134;0.262
73.418;0.107
73.4225;-0.069
73.4271;0.308
73.4317;0.115
73.4363;0.239
73.4409;0.04
73.4454;0.26
73.45;0.175
73.4546;0.18
73.4592;0.287
73.4638;0.063
73.4684;-0.062
73.4729;0.002
73.4775;0.167
73.4821;0.165
73.4867;0.139
73.4913;0.127
73.4958;0.097
73.5004;-0.151
73.505;0.145
73.5096;0.09
73.5142;0.13
73.5187;0.054
73.5233;-0.046
73.5279;0.125
73.5325;-0.013
73.5371;0.046
73.5417;-0.04
73.5462;0.224
73.5508;0.088
73.5554;0.209
73.56;-0.099
73.5646;0.102
73.5691;0.053
73.5737;0.338
73.5783;0.051
73.5829;-0.066
73.5875;-0.04
73.592;0.053
73.5966;0.099
73.6012;0.09
73.6058;0.119
73.6104;0.222
73.6149;0.181
73.6195;0.068
73.6241;0.125
73.6287;-0.099
73.6333;0.302
73.6379;-0.001
73.6424;0.1
73.647;0.028
73.6516;0.251
73.6562;0.163
73.6608;0.185
73.6653;0.068
73.6699;-0.236
73.6745;0.175
73.6791;0.211
73.6837;0.156
73.6882;-0.144
73.6928;0.03
73.6974;-0.043
73.702;0.079
73.7066;0.122
73.7112;-0.057
73.7157;-0.017
73.7203;0.122
73.7249;0.206
73.7295;0.144
73.7341;0.172
73.7386;0.139
73.7432;0.254
73.7478;0.019
73.7524;0.026
73.757;0.065
73.7615;0.069
73.7661;-0.083
73.7707;0.227
73.7753;0.127
73.7799;0.263
73.7845;-0.066
73.789;0.095
73.7936;0.355
73.7982;0.363
73.8028;-0.009
73.8074;0.07
73.8119;0.141
73.8165;0.352
73.8211;0.071
73.8257;0.207
73.8303;0.092
73.8348;0.083
73.8394;0.377
73.844;0.063
73.8486;0.22
73.8532;0.09
73.8578;0.109
73.8623;-0.034
73.8669;0.022
73.8715;0.216
73.8761;0.021
73.8807;0.217
73.8852;0.048
73.8898;0.161
73.8944;0.295
73.899;0.07
73.9036;0.18
73.9081;0.147
73.9127;0.118
73.9173;0.168
73.9219;0.15
73.9265;0.117
73.9311;0.224
73.9356;0.195
73.9402;-0.006
73.9448;-0.107
73.9494;0.098
73.954;-0.045
73.9585;0.221
73.9631;0.271
73.9677;0.19
73.9723;0.047
73.9769;0.21
73.9814;0.03
73.986;-0.014
73.9906;-0.031
73.9952;0.16
73.9998;0.195
74.0044;0.063
74.0089;-0.098
74.0135;0.125
74.0181;0.182
74.0227;0.189
74.0273;-0.222
74.0318;-0.048
74.0364;0.196
74.041;0.036
74.0456;-0.062
74.0502;-0.169
74.0547;0.066
74.0593;-0.052
74.0639;0.172
74.0685;0.088
74.0731;0.262
74.0777;0.249
74.0822;-0.065
74.0868;0.351
74.0914;-0.003
74.096;0.039
74.1006;0.043
74.1051;-0.025
74.1097;0.32
74.1143;-0.156
74.1189;0.083
74.1235;0.059
74.128;-0.039
74.1326;0.166
74.1372;0.292
74.1418;-0.009
74.1464;-0.039
74.151;0.152
74.1555;0.039
74.1601;-0.052
74.1647;0.19
74.1693;0.054
74.1739;0.002
74.1784;0.088
74.183;0.126
74.1876;0.154
74.1922;0.23
74.1968;0.055
74.2013;0.103
74.2059;0.312
74.2105;0.035
74.2151;-0.006
74.2197;0.107
74.2243;0.303
74.2288;0
74.2334;-0.014
74.238;0.219
74.2426;0.416
74.2472;0.276
74.2517;-0.076
74.2563;0.159
74.2609;-0.006
74.2655;0.194
74.2701;0.045
74.2746;0.149
74.2792;0.026
74.2838;-0.032
74.2884;0.121
74.293;-0.068
74.2976;0.129
74.3021;-0.105
74.3067;0.253
74.3113;0.027
74.3159;0.069
74.3205;0.111
74.325;0.007
74.3296;0.2
74.3342;0.073
74.3388;0.116
74.3434;0.104
74.3479;0.013
74.3525;0.294
74.3571;0.082
74.3617;0.093
74.3663;0.246
74.3709;0.008
74.3754;0.279
74.38;-0.014
74.3846;0.052
74.3892;0.224
74.3938;0.253
74.3983;0.008
74.4029;0.031
74.4075;0.035
74.4121;0.019
74.4167;-0.061
74.4212;0.059
74.4258;0.212
74.4304;0.037
74.435;-0.036
74.4396;-0.015
74.4442;0.307
74.4487;0.058
74.4533;0.048
74.4579;-0.001
74.4625;0.184
74.4671;0.191
74.4716;-0.022
74.4762;0.147
74.4808;0.207
74.4854;-0.023
74.49;0.04
74.4945;0.077
74.4991;0.137
74.5037;-0.046
74.5083;0.205
74.5129;0.139
74.5175;0.426
74.522;0.114
74.5266;0.269
74.5312;0.08
74.5358;0.243
74.5404;0.045
74.5449;0.121
74.5495;-0.002
74.5541;-0.032
74.5587;0.168
74.5633;0.08
74.5678;0.031
74.5724;0.01
74.577;0.088
74.5816;0.197
74.5862;0.089
74.5908;0.037
74.5953;0.078
74.5999;-0.033
74.6045;0.216
74.6091;0.057
74.6137;0.119
74.6182;0.046
74.6228;0.361
74.6274;0.119
74.632;0.295
74.6366;0.076
74.6411;0.134
74.6457;0.115
74.6503;0.197
74.6549;0.3
74.6595;-0.124
74.6641;0.16
74.6686;0.045
74.6732;0.049
74.6778;0.123
74.6824;0.013
74.687;-0.086
74.6915;-0.009
74.6961;0.143
74.7007;0.011
74.7053;0.339
74.7099;0.151
74.7144;0.172
74.719;0.11
74.7236;0.006
74.7282;0.084
74.7328;0.061
74.7374;0.189
74.7419;0.198
74.7465;0.163
74.7511;0.082
74.7557;-0.003
74.7603;0.132
74.7648;0.321
74.7694;0.39
74.774;0.024
74.7786;0.324
74.7832;0.114
74.7877;-0.032
74.7923;0.289
74.7969;-0.064
74.8015;0.129
74.8061;0.111
74.8107;0.167
74.8152;0.155
74.8198;0.018
74.8244;0.364
74.829;0.179
74.8336;0.257
74.8381;0.046
74.8427;0.01
74.8473;0.022
74.8519;0.079
74.8565;-0.09
74.861;0.15
74.8656;0.199
74.8702;0.008
74.8748;0.391
74.8794;-0.062
74.884;-0.024
74.8885;0.132
74.8931;-0.07
74.8977;0.282
74.9023;0.188
74.9069;0.028
74.9114;0.035
74.916;0.238
74.9206;0.1
74.9252;0.18
74.9298;0.032
74.9343;-0.02
74.9389;0.208
74.9435;0.171
74.9481;0.176
74.9527;-0.097
74.9573;0.077
74.9618;0.025
74.9664;0.121
74.971;-0.083
74.9756;-0.017
74.9802;0.033
74.9847;-0.052
74.9893;0.049
74.9939;0.173
74.9985;0.137
75.0031;0.06
75.0076;-0.041
75.0122;0.287
75.0168;0.134
75.0214;0.035
75.026;-0.037
75.0305;0.069
75.0351;0.175
75.0397;0
75.0443;0.013
75.0489;0.061
75.0535;0.116
75.058;0.187
75.0626;0.123
75.0672;0.015
75.0718;0.163
75.0764;0.268
75.0809;-0.028
75.0855;0.215
75.0901;0.107
75.0947;0.212
75.0993;0.122
75.1038;0.204
75.1084;0.397
75.113;0.029
75.1176;0.246
75.1222;0.238
75.1268;0.383
75.1313;0.183
75.1359;0.083
75.1405;-0.127
75.1451;0.197
75.1497;0.309
75.1542;-0.031
75.1588;-0.009
75.1634;0.027
75.168;0.169
75.1726;-0.103
75.1771;-0.003
75.1817;0.035
75.1863;0.233
75.1909;0.304
75.1955;0.049
75.2001;0.373
75.2046;0.034
75.2092;0.221
75.2138;-0.018
75.2184;-0.011
75.223;0.2
75.2275;0.14
75.2321;-0.131
75.2367;0.059
75.2413;0.004
75.2459;0.251
75.2504;-0.06
75.255;0.078
75.2596;0.017
75.2642;0.019
75.2688;0.23
75.2734;0.038
75.2779;0.007
75.2825;0.166
75.2871;0.184
75.2917;0.09
75.2963;0.127
75.3008;0.054
75.3054;0.012
75.31;0.046
75.3146;0.094
75.3192;0.069
75.3237;0.13
75.3283;-0.076
75.3329;-0.147
75.3375;0.08
75.3421;0.005
75.3467;-0.117
75.3512;0.145
75.3558;0.165
75.3604;0.245
75.365;0.063
75.3696;0.03
75.3741;0.144
75.3787;0.095
75.3833;-0.136
75.3879;0.069
75.3925;0.364
75.397;0.316
75.4016;0.297
75.4062;-0.057
75.4108;0.209
75.4154;0.156
75.42;0.077
75.4245;0.212
75.4291;0.18
75.4337;0.203
75.4383;0.242
75.4429;0.1
75.4474;0.327
75.452;0.366
75.4566;0.329
75.4612;0.301
75.4658;0.327
75.4703;0.557
75.4749;0.511
75.4795;0.365
75.4841;0.517
75.4887;0.369
75.4933;0.51
75.4978;0.34
75.5024;0.589
75.507;0.419
75.5116;0.351
75.5162;0.295
75.5207;0.617
75.5253;0.504
75.5299;0.29
75.5345;0.322
75.5391;0.319
75.5436;0.42
75.5482;0.578
75.5528;0.48
75.5574;0.544
75.562;0.523
75.5666;0.523
75.5711;0.175
75.5757;0.187
75.5803;0.196
75.5849;0.129
75.5895;0.118
75.594;-0.029
75.5986;0.267
75.6032;0.378
75.6078;0.171
75.6124;-0.001
75.6169;-0.021
75.6215;0.306
75.6261;0.208
75.6307;-0.051
75.6353;0.196
75.6399;0.034
75.6444;0.112
75.649;-0.072
75.6536;0.103
75.6582;0.109
75.6628;0.013
75.6673;-0.234
75.6719;0.144
75.6765;0.075
75.6811;0.058
75.6857;0.023
75.6902;0.12
75.6948;0.078
75.6994;0.127
75.704;0.011
75.7086;0.054
75.7132;0.186
75.7177;0.113
75.7223;0.172
75.7269;0.129
75.7315;-0.02
75.7361;0.265
75.7406;-0.101
75.7452;0.195
75.7498;0.296
75.7544;0.294
75.759;0.148
75.7635;0.189
75.7681;0.236
75.7727;0.001
75.7773;-0.084
75.7819;0.152
75.7865;-0.091
75.791;0.011
75.7956;0.169
75.8002;0.136
75.8048;0.145
75.8094;0.422
75.8139;0.167
75.8185;0.193
75.8231;0.054
75.8277;0.106
75.8323;0.395
75.8368;0.251
75.8414;0.048
75.846;0.067
75.8506;0.11
75.8552;0.05
75.8598;0.133
75.8643;0.219
75.8689;-0.072
75.8735;-0.022
75.8781;-0.007
75.8827;0.059
75.8872;0.24
75.8918;-0.017
75.8964;0.13
75.901;0.045
75.9056;0.286
75.9101;0.201
75.9147;0.138
75.9193;0.066
75.9239;0.182
75.9285;0.12
75.9331;0.168
75.9376;0.119
75.9422;0.027
75.9468;0.31
75.9514;0.247
75.956;0.195
75.9605;0.22
75.9651;-0.024
75.9697;0.164
75.9743;0.061
75.9789;0.35
75.9834;0.312
75.988;-0.022
75.9926;0.069
75.9972;0.262
76.0018;0.198
76.0064;0.079
76.0109;0.148
76.0155;-0.024
76.0201;0.126
76.0247;0.114
76.0293;0.069
76.0338;-0.004
76.0384;-0.034
76.043;0.126
76.0476;-0.002
76.0522;-0.082
76.0567;-0.07
76.0613;0.223
76.0659;0.098
76.0705;-0.004
76.0751;0.065
76.0797;0.132
76.0842;0.052
76.0888;0.266
76.0934;0.087
76.098;0.153
76.1026;0.147
76.1071;-0.205
76.1117;0.206
76.1163;0.012
76.1209;0.237
76.1255;0.015
76.13;0.191
76.1346;0.223
76.1392;0.148
76.1438;0.211
76.1484;0.23
76.153;-0.083
76.1575;0.258
76.1621;0.122
76.1667;0.145
76.1713;0.226
76.1759;-0.092
76.1804;-0.023
76.185;0.287
76.1896;-0.068
76.1942;0.118
76.1988;-0.102
76.2033;-0.059
76.2079;0.137
76.2125;0.174
76.2171;-0.114
76.2217;-0.125
76.2263;0.164
76.2308;0.077
76.2354;-0.019
76.24;0.117
76.2446;0.169
76.2492;0.152
76.2537;0.166
76.2583;0.245
76.2629;0.137
76.2675;0.258
76.2721;0.018
76.2766;0.365
76.2812;-0.09
76.2858;0.219
76.2904;0.156
76.295;0.28
76.2996;0.196
76.3041;0.228
76.3087;0.175
76.3133;0.254
76.3179;0.013
76.3225;0.178
76.327;0.311
76.3316;0.147
76.3362;0.198
76.3408;0.05
76.3454;0.052
76.3499;0.143
76.3545;0.035
76.3591;0.014
76.3637;0.003
76.3683;-0.014
76.3729;0.081
76.3774;-0.025
76.382;0.217
76.3866;0.218
76.3912;-0.012
76.3958;0.264
76.4003;0.139
76.4049;0.204
76.4095;0.106
76.4141;0.313
76.4187;0.233
76.4232;0.044
76.4278;0.12
76.4324;0.17
76.437;0.223
76.4416;0.198
76.4461;0.161
76.4507;0.186
76.4553;0.238
76.4599;0.523
76.4645;0.243
76.4691;0.078
76.4736;0.034
76.4782;0.136
76.4828;0.143
76.4874;0.105
76.492;0.289
76.4965;0
76.5011;0.203
76.5057;0.349
76.5103;0.216
76.5149;0.142
76.5194;0.177
76.524;0.171
76.5286;0.023
76.5332;0.273
76.5378;0.04
76.5424;0.033
76.5469;0.458
76.5515;-0.039
76.5561;-0.025
76.5607;0.049
76.5653;0.239
76.5698;0.075
76.5744;0.158
76.579;0.3
76.5836;0.063
76.5882;0.197
76.5927;0.477
76.5973;0.215
76.6019;0
76.6065;0.163
76.6111;0.154
76.6157;0.167
76.6202;0.217
76.6248;0.164
76.6294;0.302
76.634;0.181
76.6386;0.029
76.6431;0.319
76.6477;0.264
76.6523;0.338
76.6569;0.344
76.6615;0.256
76.666;0.463
76.6706;0.484
76.6752;0.35
76.6798;0.234
76.6844;0.554
76.689;0.607
76.6935;0.606
76.6981;0.84
76.7027;0.382
76.7073;0.563
76.7119;0.575
76.7164;0.714
76.721;0.313
76.7256;0.532
76.7302;0.441
76.7348;0.461
76.7393;0.286
76.7439;0.318
76.7485;0.43
76.7531;0.326
76.7577;0.343
76.7623;0.336
76.7668;0.398
76.7714;0.183
76.776;0.393
76.7806;0.509
76.7852;0.335
76.7897;0.061
76.7943;0.286
76.7989;0.097
76.8035;0.018
76.8081;0.219
76.8126;0.281
76.8172;0.007
76.8218;0.134
76.8264;0.442
76.831;0.07
76.8356;0.046
76.8401;0.285
76.8447;0.232
76.8493;0.374
76.8539;0.139
76.8585;0.254
76.863;0.189
76.8676;0.387
76.8722;0.309
76.8768;0.087
76.8814;0.182
76.8859;0.052
76.8905;0.212
76.8951;0.244
76.8997;0.366
76.9043;0.314
76.9089;0.16
76.9134;-0.124
76.918;-0.094
76.9226;0.126
76.9272;0.344
76.9318;0.181
76.9363;0.132
76.9409;0.207
76.9455;0.318
76.9501;0.14
76.9547;0.223
76.9592;0.232
76.9638;0.281
76.9684;0.217
76.973;0.25
76.9776;0.323
76.9822;0.135
76.9867;-0.024
76.9913;0.315
76.9959;0.105
77.0005;0.264
77.0051;0.146
77.0096;0.376
77.0142;0.463
77.0188;0.279
77.0234;0.259
77.028;0.28
77.0325;0.081
77.0371;0.286
77.0417;0.267
77.0463;0.309
77.0509;0.199
77.0555;0.175
77.06;0.463
77.0646;0.073
77.0692;0.141
77.0738;0.149
77.0784;0.439
77.0829;0.179
77.0875;0.263
77.0921;0.078
77.0967;-0.249
77.1013;0.213
77.1058;0.321
77.1104;0.572
77.115;0.232
77.1196;0.237
77.1242;0.138
77.1288;0.087
77.1333;0.204
77.1379;0.473
77.1425;0.269
77.1471;0.374
77.1517;0.042
77.1562;0.376
77.1608;0.132
77.1654;0.218
77.17;0.175
77.1746;0.268
77.1791;0.188
77.1837;0.229
77.1883;0.288
77.1929;0.007
77.1975;0.312
77.2021;0.245
77.2066;0.117
77.2112;0.089
77.2158;0.128
77.2204;0.159
77.225;0.128
77.2295;0.198
77.2341;0.065
77.2387;0.03
77.2433;0.146
77.2479;0.117
77.2524;0.066
77.257;0.315
77.2616;0.072
77.2662;0.178
77.2708;-0.076
77.2754;0.066
77.2799;0.023
77.2845;0.017
77.2891;0.085
77.2937;0
77.2983;0.364
77.3028;0.114
77.3074;0.172
77.312;0.273
77.3166;0.299
77.3212;0.508
77.3257;0.232
77.3303;0.237
77.3349;-0.055
77.3395;0.102
77.3441;0.027
77.3487;0.252
77.3532;0.318
77.3578;0.439
77.3624;0.062
77.367;0.349
77.3716;0.024
77.3761;0.327
77.3807;0.04
77.3853;0.108
77.3899;0.111
77.3945;0.197
77.399;0.094
77.4036;0.087
77.4082;0.048
77.4128;0.101
77.4174;0.323
77.422;0.332
77.4265;-0.04
77.4311;0.363
77.4357;0.432
77.4403;0.137
77.4449;0.047
77.4494;0.263
77.454;0.396
77.4586;0.206
77.4632;0.421
77.4678;0.265
77.4723;0.101
77.4769;0.279
77.4815;0.077
77.4861;0.275
77.4907;0.104
77.4953;0.337
77.4998;0.335
77.5044;0.094
77.509;0.273
77.5136;0.113
77.5182;0.133
77.5227;0.014
77.5273;0.234
77.5319;0.127
77.5365;-0.056
77.5411;0.244
77.5456;0.034
77.5502;0.153
77.5548;0.227
77.5594;0.327
77.564;0.431
77.5686;0.108
77.5731;0.241
77.5777;0.102
77.5823;0.05
77.5869;0.054
77.5915;0.18
77.596;0.122
77.6006;0.193
77.6052;0.212
77.6098;0.373
77.6144;0.257
77.6189;0.115
77.6235;0.113
77.6281;0.248
77.6327;0.232
77.6373;0.095
77.6419;-0.072
77.6464;0.071
77.651;0.097
77.6556;-0.025
77.6602;0.022
77.6648;0.269
77.6693;0.063
77.6739;-0.022
77.6785;-0.04
77.6831;0.191
77.6877;-0.002
77.6922;0.097
77.6968;0.147
77.7014;0.044
77.706;0.076
77.7106;0.223
77.7152;0.236
77.7197;0.065
77.7243;0.051
77.7289;0.124
77.7335;0.258
77.7381;0.062
77.7426;0.449
77.7472;0.05
77.7518;0.287
77.7564;0.301
77.761;0.189
77.7655;0.327
77.7701;0.15
77.7747;0.248
77.7793;0.162
77.7839;-0.054
77.7884;0.049
77.793;0.142
77.7976;0.212
77.8022;0.016
77.8068;0.136
77.8114;0.277
77.8159;0.115
77.8205;0.141
77.8251;0.09
77.8297;0.085
77.8343;0.106
77.8388;-0.073
77.8434;0.163
77.848;-0.014
77.8526;-0.08
77.8572;0.047
77.8617;0.022
77.8663;0.045
77.8709;0.132
77.8755;0.125
77.8801;0.105
77.8847;0.263
77.8892;-0.036
77.8938;0.126
77.8984;0.277
77.903;0.145
77.9076;0.172
77.9121;0.092
77.9167;0.184
77.9213;0.253
77.9259;0.202
77.9305;0.295
77.935;-0.01
77.9396;0.024
77.9442;0.143
77.9488;0.125
77.9534;0.189
77.958;-0.07
77.9625;-0.081
77.9671;0.032
77.9717;0.122
77.9763;0.04
77.9809;-0.018
77.9854;0.053
77.99;0.044
77.9946;0.063
77.9992;0.169
78.0038;-0.125
78.0083;0.021
78.0129;0.31
78.0175;0.078
78.0221;0.027
78.0267;0.18
78.0313;0.367
78.0358;0.101
78.0404;-0.045
78.045;-0.147
78.0496;0.187
78.0542;0.133
78.0587;0.214
78.0633;0.226
78.0679;0.289
78.0725;-0.058
78.0771;0.115
78.0816;0.23
78.0862;0.186
78.0908;0.167
78.0954;0.091
78.1;0.012
78.1046;0.168
78.1091;0.182
78.1137;0.066
78.1183;0.253
78.1229;0.229
78.1275;0.095
78.132;-0.042
78.1366;0.068
78.1412;0.099
78.1458;0.408
78.1504;0.093
78.1549;-0.064
78.1595;0.079
78.1641;0.341
78.1687;0.17
78.1733;0.067
78.1779;0.051
78.1824;-0.056
78.187;0.237
78.1916;0.254
78.1962;-0.05
78.2008;-0.069
78.2053;0.13
78.2099;0.24
78.2145;0.137
78.2191;0.213
78.2237;0.172
78.2282;0.145
78.2328;0.298
78.2374;0.238
78.242;0.134
78.2466;0.135
78.2512;0.167
78.2557;-0.083
78.2603;-0.024
78.2649;-0.079
78.2695;0.134
78.2741;0.161
78.2786;-0.036
78.2832;-0.005
78.2878;0.207
78.2924;-0.025
78.297;0.044
78.3015;0.088
78.3061;0.155
78.3107;-0.006
78.3153;0.041
78.3199;0.152
78.3245;0.168
78.329;0.229
78.3336;0.137
78.3382;0.071
78.3428;0.241
78.3474;0.034
78.3519;0.177
78.3565;0.175
78.3611;0.38
78.3657;0.106
78.3703;0.047
78.3748;-0.154
78.3794;0.188
78.384;0.224
78.3886;-0.096
78.3932;0.024
78.3978;0.029
78.4023;0.279
78.4069;0.09
78.4115;0.194
78.4161;0.141
78.4207;0.037
78.4252;0.139
78.4298;0.216
78.4344;0.058
78.439;-0.038
78.4436;0.132
78.4481;0.049
78.4527;0.169
78.4573;0.11
78.4619;0.062
78.4665;0.058
78.4711;0.014
78.4756;0.169
78.4802;0.09
78.4848;0.391
78.4894;0.201
78.494;-0.166
78.4985;0.247
78.5031;-0.155
78.5077;0.223
78.5123;0.145
78.5169;0.175
78.5214;0.211
78.526;0.081
78.5306;0.066
78.5352;-0.12
78.5398;0
78.5444;0.255
78.5489;0.27
78.5535;0.056
78.5581;0.25
78.5627;0.103
78.5673;0.112
78.5718;-0.047
78.5764;0.036
78.581;0.178
78.5856;0.106
78.5902;-0.118
78.5947;0.361
78.5993;0.252
78.6039;0.39
78.6085;0.095
78.6131;0.059
78.6177;0.21
78.6222;0.341
78.6268;0.171
78.6314;-0.033
78.636;0.02
78.6406;0.305
78.6451;0.097
78.6497;0.277
78.6543;0.097
78.6589;0.203
78.6635;0.011
78.668;0.158
78.6726;0.091
78.6772;0.259
78.6818;-0.049
78.6864;0.086
78.691;0.103
78.6955;0.392
78.7001;0.056
78.7047;0.176
78.7093;0.168
78.7139;0.028
78.7184;0.032
78.723;0.391
78.7276;0.061
78.7322;0.268
78.7368;0.123
78.7413;0.149
78.7459;0.174
78.7505;0.041
78.7551;-0.016
78.7597;0.115
78.7643;0.037
78.7688;0.009
78.7734;0.131
78.778;-0.031
78.7826;-0.09
78.7872;0.087
78.7917;0.227
78.7963;0.188
78.8009;0.382
78.8055;0.112
78.8101;0.058
78.8146;0.074
78.8192;0.299
78.8238;0.115
78.8284;-0.004
78.833;0.072
78.8376;0.205
78.8421;0.213
78.8467;0.194
78.8513;0.216
78.8559;-0.004
78.8605;0.177
78.865;0.389
78.8696;0.031
78.8742;0.057
78.8788;0.201
78.8834;0.098
78.8879;0.124
78.8925;0.144
78.8971;0.288
78.9017;0.173
78.9063;0.106
78.9109;0.01
78.9154;0.239
78.92;0.436
78.9246;0.087
78.9292;0.042
78.9338;0.16
78.9383;-0.1
78.9429;0.235
78.9475;0.309
78.9521;-0.079
78.9567;-0.083
78.9612;0.083
78.9658;0.046
78.9704;0.156
78.975;0.195
78.9796;0.167
78.9842;0.212
78.9887;0.073
78.9933;0.098
78.9979;0.251
79.0025;0.086
79.0071;0.221
79.0116;0.309
79.0162;0.19
79.0208;0.178
79.0254;0.017
79.03;0.07
79.0345;-0.142
79.0391;0.281
79.0437;0.096
79.0483;0.154
79.0529;-0.058
79.0575;0.103
79.062;0.418
79.0666;0.219
79.0712;0.176
79.0758;0.1
79.0804;0.163
79.0849;0.149
79.0895;0.195
79.0941;0.255
79.0987;0.013
79.1033;0.306
79.1078;0.062
79.1124;0.041
79.117;0.252
79.1216;0.309
79.1262;-0.048
79.1308;0.09
79.1353;0.05
79.1399;0.338
79.1445;0.12
79.1491;0.093
79.1537;0.035
79.1582;0.203
79.1628;0.275
79.1674;0.047
79.172;0.234
79.1766;-0.063
79.1811;0.15
79.1857;0.325
79.1903;0.344
79.1949;0.111
79.1995;0.184
79.204;-0.051
79.2086;0.11
79.2132;0.011
79.2178;-0.014
79.2224;-0.047
79.227;0.073
79.2315;-0.04
79.2361;-0.026
79.2407;-0.079
79.2453;-0.032
79.2499;-0.092
79.2544;0.179
79.259;0.068
79.2636;0.197
79.2682;0.157
79.2728;-0.003
79.2773;0.165
79.2819;0.113
79.2865;0.072
79.2911;0.072
79.2957;-0.096
79.3003;0.028
79.3048;0.34
79.3094;0.224
79.314;-0.021
79.3186;0.179
79.3232;0.038
79.3277;0.112
79.3323;0.237
79.3369;0.192
79.3415;0.122
79.3461;0.306
79.3506;0.047
79.3552;-0.009
79.3598;0.248
79.3644;0.085
79.369;0.143
79.3736;0
79.3781;0.171
79.3827;0.177
79.3873;0.1
79.3919;0.055
79.3965;0.084
79.401;0.021
79.4056;0.161
79.4102;0.187
79.4148;0.121
79.4194;-0.087
79.4239;0.083
79.4285;0.095
79.4331;0.157
79.4377;0.235
79.4423;0.272
79.4469;0.254
79.4514;0.177
79.456;0.263
79.4606;0.069
79.4652;0.209
79.4698;0.112
79.4743;0.211
79.4789;0.157
79.4835;0.113
79.4881;0.098
79.4927;0.17
79.4972;0.028
79.5018;0.098
79.5064;0.078
79.511;0.151
79.5156;0.062
79.5202;0.328
79.5247;0.1
79.5293;0.258
79.5339;0.222
79.5385;0.165
79.5431;0.045
79.5476;0.098
79.5522;-0.128
79.5568;0.04
79.5614;-0.008
79.566;0.12
79.5705;-0.066
79.5751;-0.024
79.5797;0.07
79.5843;0.142
79.5889;-0.016
79.5935;-0.035
79.598;0.013
79.6026;0.296
79.6072;0.227
79.6118;0.124
79.6164;0.163
79.6209;0.39
79.6255;0.129
79.6301;0.033
79.6347;0.153
79.6393;0.243
79.6438;-0.106
79.6484;-0.015
79.653;0.13
79.6576;0.357
79.6622;0.041
79.6668;0.074
79.6713;0.127
79.6759;0.23
79.6805;-0.038
79.6851;-0.043
79.6897;0.096
79.6942;0.331
79.6988;0.041
79.7034;0.192
79.708;0.101
79.7126;0.259
79.7171;0.07
79.7217;-0.049
79.7263;0.192
79.7309;0.006
79.7355;0.011
79.7401;-0.045
79.7446;0.205
79.7492;0.278
79.7538;-0.081
79.7584;0.047
79.763;0.05
79.7675;0.022
79.7721;-0.082
79.7767;0.151
79.7813;0.051
79.7859;0.179
79.7904;0.281
79.795;0.25
79.7996;0.175
79.8042;0.159
79.8088;0.063
79.8134;-0.015
79.8179;0.144
79.8225;0.141
79.8271;0.093
79.8317;0.062
79.8363;0.039
79.8408;0.113
79.8454;0.017
79.85;-0.001
79.8546;0.045
79.8592;0.129
79.8637;-0.024
79.8683;0.06
79.8729;0.114
79.8775;0.026
79.8821;0.131
79.8867;-0.082
79.8912;0.005
79.8958;-0.157
79.9004;0.029
79.905;-0.08
79.9096;-0.069
79.9141;-0.056
79.9187;0.111
79.9233;0.226
79.9279;-0.051
79.9325;0.038
79.937;0.074
79.9416;0.012
79.9462;-0.234
79.9508;0.242
79.9554;0.098
79.96;-0.014
79.9645;-0.114
79.9691;0.116
79.9737;-0.096
79.9783;-0.083
79.9829;-0.083
79.9874;-0.019
79.992;0
